'[00:00:00.000 01/01/2011]',-18.600
'[00:00:00.001 01/01/2011]',-20.100
'[00:00:00.002 01/01/2011]',-21.400
'[00:00:00.003 01/01/2011]',-22.200
'[00:00:00.004 01/01/2011]',-22.400
'[00:00:00.005 01/01/2011]',-22.200
'[00:00:00.006 01/01/2011]',-21.900
'[00:00:00.007 01/01/2011]',-21.900
'[00:00:00.008 01/01/2011]',-22.200
'[00:00:00.009 01/01/2011]',-22.700
'[00:00:00.010 01/01/2011]',-23.000
'[00:00:00.011 01/01/2011]',-23.200
'[00:00:00.012 01/01/2011]',-23.100
'[00:00:00.013 01/01/2011]',-22.900
'[00:00:00.014 01/01/2011]',-22.600
'[00:00:00.015 01/01/2011]',-22.200
'[00:00:00.016 01/01/2011]',-21.700
'[00:00:00.017 01/01/2011]',-21.000
'[00:00:00.018 01/01/2011]',-20.500
'[00:00:00.019 01/01/2011]',-20.600
'[00:00:00.020 01/01/2011]',-21.300
'[00:00:00.021 01/01/2011]',-22.500
'[00:00:00.022 01/01/2011]',-23.900
'[00:00:00.023 01/01/2011]',-24.700
'[00:00:00.024 01/01/2011]',-24.900
'[00:00:00.025 01/01/2011]',-24.400
'[00:00:00.026 01/01/2011]',-23.800
'[00:00:00.027 01/01/2011]',-23.400
'[00:00:00.028 01/01/2011]',-23.400
'[00:00:00.029 01/01/2011]',-23.500
'[00:00:00.030 01/01/2011]',-23.500
'[00:00:00.031 01/01/2011]',-23.000
'[00:00:00.032 01/01/2011]',-22.300
'[00:00:00.033 01/01/2011]',-21.800
'[00:00:00.034 01/01/2011]',-22.300
'[00:00:00.035 01/01/2011]',-23.800
'[00:00:00.036 01/01/2011]',-26.000
'[00:00:00.037 01/01/2011]',-28.000
'[00:00:00.038 01/01/2011]',-28.900
'[00:00:00.039 01/01/2011]',-28.100
'[00:00:00.040 01/01/2011]',-26.300
'[00:00:00.041 01/01/2011]',-24.500
'[00:00:00.042 01/01/2011]',-24.000
'[00:00:00.043 01/01/2011]',-25.400
'[00:00:00.044 01/01/2011]',-28.400
'[00:00:00.045 01/01/2011]',-31.600
'[00:00:00.046 01/01/2011]',-33.701
'[00:00:00.047 01/01/2011]',-33.901
'[00:00:00.048 01/01/2011]',-32.300
'[00:00:00.049 01/01/2011]',-29.900
'[00:00:00.050 01/01/2011]',-27.900
'[00:00:00.051 01/01/2011]',-27.100
'[00:00:00.052 01/01/2011]',-27.700
'[00:00:00.053 01/01/2011]',-29.400
'[00:00:00.054 01/01/2011]',-31.600
'[00:00:00.055 01/01/2011]',-34.101
'[00:00:00.056 01/01/2011]',-36.601
'[00:00:00.057 01/01/2011]',-38.901
'[00:00:00.058 01/01/2011]',-40.901
'[00:00:00.059 01/01/2011]',-42.101
'[00:00:00.060 01/01/2011]',-42.401
'[00:00:00.061 01/01/2011]',-42.001
'[00:00:00.062 01/01/2011]',-41.501
'[00:00:00.063 01/01/2011]',-41.401
'[00:00:00.064 01/01/2011]',-42.101
'[00:00:00.065 01/01/2011]',-43.201
'[00:00:00.066 01/01/2011]',-44.601
'[00:00:00.067 01/01/2011]',-45.801
'[00:00:00.068 01/01/2011]',-46.701
'[00:00:00.069 01/01/2011]',-47.401
'[00:00:00.070 01/01/2011]',-47.801
'[00:00:00.071 01/01/2011]',-47.901
'[00:00:00.072 01/01/2011]',-47.601
'[00:00:00.073 01/01/2011]',-46.901
'[00:00:00.074 01/01/2011]',-46.301
'[00:00:00.075 01/01/2011]',-46.201
'[00:00:00.076 01/01/2011]',-46.601
'[00:00:00.077 01/01/2011]',-47.201
'[00:00:00.078 01/01/2011]',-47.401
'[00:00:00.079 01/01/2011]',-46.901
'[00:00:00.080 01/01/2011]',-45.801
'[00:00:00.081 01/01/2011]',-44.901
'[00:00:00.082 01/01/2011]',-44.901
'[00:00:00.083 01/01/2011]',-45.701
'[00:00:00.084 01/01/2011]',-47.001
'[00:00:00.085 01/01/2011]',-47.901
'[00:00:00.086 01/01/2011]',-47.901
'[00:00:00.087 01/01/2011]',-47.101
'[00:00:00.088 01/01/2011]',-46.001
'[00:00:00.089 01/01/2011]',-45.601
'[00:00:00.090 01/01/2011]',-45.901
'[00:00:00.091 01/01/2011]',-46.801
'[00:00:00.092 01/01/2011]',-47.601
'[00:00:00.093 01/01/2011]',-47.601
'[00:00:00.094 01/01/2011]',-47.001
'[00:00:00.095 01/01/2011]',-46.301
'[00:00:00.096 01/01/2011]',-46.101
'[00:00:00.097 01/01/2011]',-46.701
'[00:00:00.098 01/01/2011]',-48.101
'[00:00:00.099 01/01/2011]',-49.501
'[00:00:00.100 01/01/2011]',-50.201
'[00:00:00.101 01/01/2011]',-50.001
'[00:00:00.102 01/01/2011]',-48.801
'[00:00:00.103 01/01/2011]',-47.301
'[00:00:00.104 01/01/2011]',-45.901
'[00:00:00.105 01/01/2011]',-45.101
'[00:00:00.106 01/01/2011]',-45.101
'[00:00:00.107 01/01/2011]',-45.601
'[00:00:00.108 01/01/2011]',-46.401
'[00:00:00.109 01/01/2011]',-47.001
'[00:00:00.110 01/01/2011]',-47.501
'[00:00:00.111 01/01/2011]',-47.701
'[00:00:00.112 01/01/2011]',-47.701
'[00:00:00.113 01/01/2011]',-47.401
'[00:00:00.114 01/01/2011]',-46.801
'[00:00:00.115 01/01/2011]',-46.001
'[00:00:00.116 01/01/2011]',-45.001
'[00:00:00.117 01/01/2011]',-44.201
'[00:00:00.118 01/01/2011]',-43.801
'[00:00:00.119 01/01/2011]',-43.801
'[00:00:00.120 01/01/2011]',-44.101
'[00:00:00.121 01/01/2011]',-44.301
'[00:00:00.122 01/01/2011]',-43.901
'[00:00:00.123 01/01/2011]',-43.001
'[00:00:00.124 01/01/2011]',-41.901
'[00:00:00.125 01/01/2011]',-41.201
'[00:00:00.126 01/01/2011]',-41.201
'[00:00:00.127 01/01/2011]',-41.901
'[00:00:00.128 01/01/2011]',-42.701
'[00:00:00.129 01/01/2011]',-43.301
'[00:00:00.130 01/01/2011]',-43.401
'[00:00:00.131 01/01/2011]',-43.301
'[00:00:00.132 01/01/2011]',-43.601
'[00:00:00.133 01/01/2011]',-44.601
'[00:00:00.134 01/01/2011]',-46.001
'[00:00:00.135 01/01/2011]',-47.101
'[00:00:00.136 01/01/2011]',-47.001
'[00:00:00.137 01/01/2011]',-45.201
'[00:00:00.138 01/01/2011]',-41.401
'[00:00:00.139 01/01/2011]',-35.701
'[00:00:00.140 01/01/2011]',-28.300
'[00:00:00.141 01/01/2011]',-19.200
'[00:00:00.142 01/01/2011]',-8.700
'[00:00:00.143 01/01/2011]',2.700
'[00:00:00.144 01/01/2011]',14.100
'[00:00:00.145 01/01/2011]',24.200
'[00:00:00.146 01/01/2011]',32.000
'[00:00:00.147 01/01/2011]',37.401
'[00:00:00.148 01/01/2011]',40.901
'[00:00:00.149 01/01/2011]',43.501
'[00:00:00.150 01/01/2011]',45.701
'[00:00:00.151 01/01/2011]',47.801
'[00:00:00.152 01/01/2011]',49.001
'[00:00:00.153 01/01/2011]',48.901
'[00:00:00.154 01/01/2011]',47.401
'[00:00:00.155 01/01/2011]',45.301
'[00:00:00.156 01/01/2011]',43.401
'[00:00:00.157 01/01/2011]',42.501
'[00:00:00.158 01/01/2011]',42.401
'[00:00:00.159 01/01/2011]',42.201
'[00:00:00.160 01/01/2011]',40.801
'[00:00:00.161 01/01/2011]',37.001
'[00:00:00.162 01/01/2011]',30.800
'[00:00:00.163 01/01/2011]',22.300
'[00:00:00.164 01/01/2011]',12.100
'[00:00:00.165 01/01/2011]',0.800
'[00:00:00.166 01/01/2011]',-10.700
'[00:00:00.167 01/01/2011]',-21.700
'[00:00:00.168 01/01/2011]',-31.000
'[00:00:00.169 01/01/2011]',-37.601
'[00:00:00.170 01/01/2011]',-41.101
'[00:00:00.171 01/01/2011]',-41.301
'[00:00:00.172 01/01/2011]',-38.801
'[00:00:00.173 01/01/2011]',-34.101
'[00:00:00.174 01/01/2011]',-27.900
'[00:00:00.175 01/01/2011]',-20.800
'[00:00:00.176 01/01/2011]',-13.700
'[00:00:00.177 01/01/2011]',-7.700
'[00:00:00.178 01/01/2011]',-3.600
'[00:00:00.179 01/01/2011]',-1.800
'[00:00:00.180 01/01/2011]',-1.800
'[00:00:00.181 01/01/2011]',-2.600
'[00:00:00.182 01/01/2011]',-3.100
'[00:00:00.183 01/01/2011]',-2.700
'[00:00:00.184 01/01/2011]',-1.500
'[00:00:00.185 01/01/2011]',0.100
'[00:00:00.186 01/01/2011]',1.500
'[00:00:00.187 01/01/2011]',2.500
'[00:00:00.188 01/01/2011]',3.200
'[00:00:00.189 01/01/2011]',4.000
'[00:00:00.190 01/01/2011]',4.900
'[00:00:00.191 01/01/2011]',5.700
'[00:00:00.192 01/01/2011]',6.300
'[00:00:00.193 01/01/2011]',6.600
'[00:00:00.194 01/01/2011]',6.400
'[00:00:00.195 01/01/2011]',6.100
'[00:00:00.196 01/01/2011]',5.800
'[00:00:00.197 01/01/2011]',5.600
'[00:00:00.198 01/01/2011]',5.600
'[00:00:00.199 01/01/2011]',5.700
'[00:00:00.200 01/01/2011]',5.900
'[00:00:00.201 01/01/2011]',6.200
'[00:00:00.202 01/01/2011]',6.400
'[00:00:00.203 01/01/2011]',6.500
'[00:00:00.204 01/01/2011]',6.600
'[00:00:00.205 01/01/2011]',6.600
'[00:00:00.206 01/01/2011]',7.000
'[00:00:00.207 01/01/2011]',7.700
'[00:00:00.208 01/01/2011]',8.800
'[00:00:00.209 01/01/2011]',9.900
'[00:00:00.210 01/01/2011]',10.600
'[00:00:00.211 01/01/2011]',10.600
'[00:00:00.212 01/01/2011]',10.000
'[00:00:00.213 01/01/2011]',9.100
'[00:00:00.214 01/01/2011]',8.300
'[00:00:00.215 01/01/2011]',7.900
'[00:00:00.216 01/01/2011]',8.000
'[00:00:00.217 01/01/2011]',8.300
'[00:00:00.218 01/01/2011]',8.700
'[00:00:00.219 01/01/2011]',9.200
'[00:00:00.220 01/01/2011]',9.700
'[00:00:00.221 01/01/2011]',10.300
'[00:00:00.222 01/01/2011]',10.700
'[00:00:00.223 01/01/2011]',10.500
'[00:00:00.224 01/01/2011]',9.600
'[00:00:00.225 01/01/2011]',8.500
'[00:00:00.226 01/01/2011]',7.800
'[00:00:00.227 01/01/2011]',8.100
'[00:00:00.228 01/01/2011]',9.400
'[00:00:00.229 01/01/2011]',11.100
'[00:00:00.230 01/01/2011]',12.300
'[00:00:00.231 01/01/2011]',12.400
'[00:00:00.232 01/01/2011]',11.500
'[00:00:00.233 01/01/2011]',10.400
'[00:00:00.234 01/01/2011]',9.600
'[00:00:00.235 01/01/2011]',9.700
'[00:00:00.236 01/01/2011]',10.200
'[00:00:00.237 01/01/2011]',10.700
'[00:00:00.238 01/01/2011]',10.800
'[00:00:00.239 01/01/2011]',10.600
'[00:00:00.240 01/01/2011]',10.300
'[00:00:00.241 01/01/2011]',10.400
'[00:00:00.242 01/01/2011]',10.800
'[00:00:00.243 01/01/2011]',11.100
'[00:00:00.244 01/01/2011]',11.000
'[00:00:00.245 01/01/2011]',10.400
'[00:00:00.246 01/01/2011]',9.700
'[00:00:00.247 01/01/2011]',9.400
'[00:00:00.248 01/01/2011]',9.900
'[00:00:00.249 01/01/2011]',11.000
'[00:00:00.250 01/01/2011]',12.300
'[00:00:00.251 01/01/2011]',13.300
'[00:00:00.252 01/01/2011]',13.800
'[00:00:00.253 01/01/2011]',13.700
'[00:00:00.254 01/01/2011]',13.100
'[00:00:00.255 01/01/2011]',12.300
'[00:00:00.256 01/01/2011]',11.500
'[00:00:00.257 01/01/2011]',10.900
'[00:00:00.258 01/01/2011]',10.500
'[00:00:00.259 01/01/2011]',10.400
'[00:00:00.260 01/01/2011]',10.400
'[00:00:00.261 01/01/2011]',10.500
'[00:00:00.262 01/01/2011]',10.600
'[00:00:00.263 01/01/2011]',10.700
'[00:00:00.264 01/01/2011]',10.900
'[00:00:00.265 01/01/2011]',11.200
'[00:00:00.266 01/01/2011]',11.400
'[00:00:00.267 01/01/2011]',11.400
'[00:00:00.268 01/01/2011]',11.100
'[00:00:00.269 01/01/2011]',10.800
'[00:00:00.270 01/01/2011]',10.700
'[00:00:00.271 01/01/2011]',11.000
'[00:00:00.272 01/01/2011]',11.700
'[00:00:00.273 01/01/2011]',12.500
'[00:00:00.274 01/01/2011]',12.800
'[00:00:00.275 01/01/2011]',12.400
'[00:00:00.276 01/01/2011]',11.100
'[00:00:00.277 01/01/2011]',9.500
'[00:00:00.278 01/01/2011]',8.000
'[00:00:00.279 01/01/2011]',7.100
'[00:00:00.280 01/01/2011]',7.000
'[00:00:00.281 01/01/2011]',7.600
'[00:00:00.282 01/01/2011]',8.500
'[00:00:00.283 01/01/2011]',9.700
'[00:00:00.284 01/01/2011]',10.700
'[00:00:00.285 01/01/2011]',11.400
'[00:00:00.286 01/01/2011]',11.400
'[00:00:00.287 01/01/2011]',10.600
'[00:00:00.288 01/01/2011]',9.300
'[00:00:00.289 01/01/2011]',7.800
'[00:00:00.290 01/01/2011]',6.700
'[00:00:00.291 01/01/2011]',6.400
'[00:00:00.292 01/01/2011]',6.900
'[00:00:00.293 01/01/2011]',7.900
'[00:00:00.294 01/01/2011]',8.800
'[00:00:00.295 01/01/2011]',9.200
'[00:00:00.296 01/01/2011]',9.200
'[00:00:00.297 01/01/2011]',8.800
'[00:00:00.298 01/01/2011]',8.400
'[00:00:00.299 01/01/2011]',8.200
'[00:00:00.300 01/01/2011]',8.300
'[00:00:00.301 01/01/2011]',8.500
'[00:00:00.302 01/01/2011]',8.600
'[00:00:00.303 01/01/2011]',8.400
'[00:00:00.304 01/01/2011]',7.900
'[00:00:00.305 01/01/2011]',7.400
'[00:00:00.306 01/01/2011]',7.200
'[00:00:00.307 01/01/2011]',7.400
'[00:00:00.308 01/01/2011]',8.000
'[00:00:00.309 01/01/2011]',8.700
'[00:00:00.310 01/01/2011]',9.100
'[00:00:00.311 01/01/2011]',8.800
'[00:00:00.312 01/01/2011]',8.000
'[00:00:00.313 01/01/2011]',7.100
'[00:00:00.314 01/01/2011]',6.800
'[00:00:00.315 01/01/2011]',7.200
'[00:00:00.316 01/01/2011]',8.100
'[00:00:00.317 01/01/2011]',9.000
'[00:00:00.318 01/01/2011]',9.200
'[00:00:00.319 01/01/2011]',8.600
'[00:00:00.320 01/01/2011]',7.600
'[00:00:00.321 01/01/2011]',6.700
'[00:00:00.322 01/01/2011]',6.500
'[00:00:00.323 01/01/2011]',7.000
'[00:00:00.324 01/01/2011]',7.700
'[00:00:00.325 01/01/2011]',8.200
'[00:00:00.326 01/01/2011]',8.200
'[00:00:00.327 01/01/2011]',8.000
'[00:00:00.328 01/01/2011]',7.800
'[00:00:00.329 01/01/2011]',7.900
'[00:00:00.330 01/01/2011]',8.400
'[00:00:00.331 01/01/2011]',9.000
'[00:00:00.332 01/01/2011]',9.300
'[00:00:00.333 01/01/2011]',9.100
'[00:00:00.334 01/01/2011]',8.600
'[00:00:00.335 01/01/2011]',7.800
'[00:00:00.336 01/01/2011]',7.000
'[00:00:00.337 01/01/2011]',6.200
'[00:00:00.338 01/01/2011]',5.600
'[00:00:00.339 01/01/2011]',5.200
'[00:00:00.340 01/01/2011]',5.100
'[00:00:00.341 01/01/2011]',5.100
'[00:00:00.342 01/01/2011]',5.100
'[00:00:00.343 01/01/2011]',5.100
'[00:00:00.344 01/01/2011]',4.800
'[00:00:00.345 01/01/2011]',4.300
'[00:00:00.346 01/01/2011]',3.800
'[00:00:00.347 01/01/2011]',3.500
'[00:00:00.348 01/01/2011]',3.600
'[00:00:00.349 01/01/2011]',3.700
'[00:00:00.350 01/01/2011]',3.600
'[00:00:00.351 01/01/2011]',3.000
'[00:00:00.352 01/01/2011]',1.600
'[00:00:00.353 01/01/2011]',0.000
'[00:00:00.354 01/01/2011]',-1.500
'[00:00:00.355 01/01/2011]',-2.100
'[00:00:00.356 01/01/2011]',-1.700
'[00:00:00.357 01/01/2011]',-0.500
'[00:00:00.358 01/01/2011]',0.800
'[00:00:00.359 01/01/2011]',1.500
'[00:00:00.360 01/01/2011]',1.200
'[00:00:00.361 01/01/2011]',0.300
'[00:00:00.362 01/01/2011]',-0.900
'[00:00:00.363 01/01/2011]',-1.600
'[00:00:00.364 01/01/2011]',-1.600
'[00:00:00.365 01/01/2011]',-1.300
'[00:00:00.366 01/01/2011]',-1.000
'[00:00:00.367 01/01/2011]',-1.300
'[00:00:00.368 01/01/2011]',-2.300
'[00:00:00.369 01/01/2011]',-3.700
'[00:00:00.370 01/01/2011]',-5.000
'[00:00:00.371 01/01/2011]',-5.700
'[00:00:00.372 01/01/2011]',-5.700
'[00:00:00.373 01/01/2011]',-5.100
'[00:00:00.374 01/01/2011]',-4.100
'[00:00:00.375 01/01/2011]',-3.400
'[00:00:00.376 01/01/2011]',-3.200
'[00:00:00.377 01/01/2011]',-3.800
'[00:00:00.378 01/01/2011]',-5.000
'[00:00:00.379 01/01/2011]',-6.500
'[00:00:00.380 01/01/2011]',-7.700
'[00:00:00.381 01/01/2011]',-8.400
'[00:00:00.382 01/01/2011]',-8.500
'[00:00:00.383 01/01/2011]',-8.500
'[00:00:00.384 01/01/2011]',-8.700
'[00:00:00.385 01/01/2011]',-9.600
'[00:00:00.386 01/01/2011]',-11.100
'[00:00:00.387 01/01/2011]',-13.100
'[00:00:00.388 01/01/2011]',-15.200
'[00:00:00.389 01/01/2011]',-16.900
'[00:00:00.390 01/01/2011]',-17.800
'[00:00:00.391 01/01/2011]',-17.900
'[00:00:00.392 01/01/2011]',-17.200
'[00:00:00.393 01/01/2011]',-16.400
'[00:00:00.394 01/01/2011]',-16.100
'[00:00:00.395 01/01/2011]',-16.600
'[00:00:00.396 01/01/2011]',-18.200
'[00:00:00.397 01/01/2011]',-20.400
'[00:00:00.398 01/01/2011]',-22.500
'[00:00:00.399 01/01/2011]',-23.900
'[00:00:00.400 01/01/2011]',-24.400
'[00:00:00.401 01/01/2011]',-24.300
'[00:00:00.402 01/01/2011]',-24.100
'[00:00:00.403 01/01/2011]',-24.500
'[00:00:00.404 01/01/2011]',-25.600
'[00:00:00.405 01/01/2011]',-27.100
'[00:00:00.406 01/01/2011]',-28.600
'[00:00:00.407 01/01/2011]',-29.600
'[00:00:00.408 01/01/2011]',-30.000
'[00:00:00.409 01/01/2011]',-30.000
'[00:00:00.410 01/01/2011]',-30.200
'[00:00:00.411 01/01/2011]',-30.900
'[00:00:00.412 01/01/2011]',-32.200
'[00:00:00.413 01/01/2011]',-33.701
'[00:00:00.414 01/01/2011]',-34.901
'[00:00:00.415 01/01/2011]',-35.201
'[00:00:00.416 01/01/2011]',-35.001
'[00:00:00.417 01/01/2011]',-34.901
'[00:00:00.418 01/01/2011]',-35.401
'[00:00:00.419 01/01/2011]',-37.001
'[00:00:00.420 01/01/2011]',-39.001
'[00:00:00.421 01/01/2011]',-40.601
'[00:00:00.422 01/01/2011]',-41.001
'[00:00:00.423 01/01/2011]',-40.501
'[00:00:00.424 01/01/2011]',-39.701
'[00:00:00.425 01/01/2011]',-39.801
'[00:00:00.426 01/01/2011]',-41.101
'[00:00:00.427 01/01/2011]',-43.201
'[00:00:00.428 01/01/2011]',-45.101
'[00:00:00.429 01/01/2011]',-45.701
'[00:00:00.430 01/01/2011]',-45.001
'[00:00:00.431 01/01/2011]',-43.901
'[00:00:00.432 01/01/2011]',-43.401
'[00:00:00.433 01/01/2011]',-44.101
'[00:00:00.434 01/01/2011]',-45.801
'[00:00:00.435 01/01/2011]',-47.601
'[00:00:00.436 01/01/2011]',-48.801
'[00:00:00.437 01/01/2011]',-49.001
'[00:00:00.438 01/01/2011]',-48.701
'[00:00:00.439 01/01/2011]',-48.501
'[00:00:00.440 01/01/2011]',-48.901
'[00:00:00.441 01/01/2011]',-50.001
'[00:00:00.442 01/01/2011]',-51.301
'[00:00:00.443 01/01/2011]',-52.601
'[00:00:00.444 01/01/2011]',-53.301
'[00:00:00.445 01/01/2011]',-53.401
'[00:00:00.446 01/01/2011]',-52.801
'[00:00:00.447 01/01/2011]',-51.601
'[00:00:00.448 01/01/2011]',-50.201
'[00:00:00.449 01/01/2011]',-49.201
'[00:00:00.450 01/01/2011]',-49.101
'[00:00:00.451 01/01/2011]',-50.001
'[00:00:00.452 01/01/2011]',-51.401
'[00:00:00.453 01/01/2011]',-52.801
'[00:00:00.454 01/01/2011]',-53.501
'[00:00:00.455 01/01/2011]',-53.401
'[00:00:00.456 01/01/2011]',-52.901
'[00:00:00.457 01/01/2011]',-52.401
'[00:00:00.458 01/01/2011]',-52.301
'[00:00:00.459 01/01/2011]',-52.801
'[00:00:00.460 01/01/2011]',-53.401
'[00:00:00.461 01/01/2011]',-54.001
'[00:00:00.462 01/01/2011]',-54.501
'[00:00:00.463 01/01/2011]',-54.901
'[00:00:00.464 01/01/2011]',-55.401
'[00:00:00.465 01/01/2011]',-55.801
'[00:00:00.466 01/01/2011]',-56.001
'[00:00:00.467 01/01/2011]',-56.101
'[00:00:00.468 01/01/2011]',-55.901
'[00:00:00.469 01/01/2011]',-55.801
'[00:00:00.470 01/01/2011]',-55.901
'[00:00:00.471 01/01/2011]',-56.201
'[00:00:00.472 01/01/2011]',-56.301
'[00:00:00.473 01/01/2011]',-55.901
'[00:00:00.474 01/01/2011]',-55.101
'[00:00:00.475 01/01/2011]',-54.001
'[00:00:00.476 01/01/2011]',-52.901
'[00:00:00.477 01/01/2011]',-52.201
'[00:00:00.478 01/01/2011]',-52.001
'[00:00:00.479 01/01/2011]',-52.201
'[00:00:00.480 01/01/2011]',-52.701
'[00:00:00.481 01/01/2011]',-53.201
'[00:00:00.482 01/01/2011]',-54.001
'[00:00:00.483 01/01/2011]',-54.901
'[00:00:00.484 01/01/2011]',-55.801
'[00:00:00.485 01/01/2011]',-56.401
'[00:00:00.486 01/01/2011]',-56.501
'[00:00:00.487 01/01/2011]',-55.901
'[00:00:00.488 01/01/2011]',-54.701
'[00:00:00.489 01/01/2011]',-53.601
'[00:00:00.490 01/01/2011]',-52.801
'[00:00:00.491 01/01/2011]',-52.601
'[00:00:00.492 01/01/2011]',-52.701
'[00:00:00.493 01/01/2011]',-52.801
'[00:00:00.494 01/01/2011]',-52.301
'[00:00:00.495 01/01/2011]',-51.301
'[00:00:00.496 01/01/2011]',-50.201
'[00:00:00.497 01/01/2011]',-49.501
'[00:00:00.498 01/01/2011]',-49.501
'[00:00:00.499 01/01/2011]',-50.301
'[00:00:00.500 01/01/2011]',-51.401
'[00:00:00.501 01/01/2011]',-52.201
'[00:00:00.502 01/01/2011]',-52.501
'[00:00:00.503 01/01/2011]',-52.501
'[00:00:00.504 01/01/2011]',-52.601
'[00:00:00.505 01/01/2011]',-53.101
'[00:00:00.506 01/01/2011]',-53.901
'[00:00:00.507 01/01/2011]',-54.601
'[00:00:00.508 01/01/2011]',-54.801
'[00:00:00.509 01/01/2011]',-54.601
'[00:00:00.510 01/01/2011]',-54.301
'[00:00:00.511 01/01/2011]',-54.401
'[00:00:00.512 01/01/2011]',-55.201
'[00:00:00.513 01/01/2011]',-56.601
'[00:00:00.514 01/01/2011]',-58.001
'[00:00:00.515 01/01/2011]',-58.801
'[00:00:00.516 01/01/2011]',-58.901
'[00:00:00.517 01/01/2011]',-58.401
'[00:00:00.518 01/01/2011]',-57.901
'[00:00:00.519 01/01/2011]',-58.001
'[00:00:00.520 01/01/2011]',-58.901
'[00:00:00.521 01/01/2011]',-60.401
'[00:00:00.522 01/01/2011]',-62.001
'[00:00:00.523 01/01/2011]',-63.201
'[00:00:00.524 01/01/2011]',-63.701
'[00:00:00.525 01/01/2011]',-63.501
'[00:00:00.526 01/01/2011]',-62.601
'[00:00:00.527 01/01/2011]',-61.301
'[00:00:00.528 01/01/2011]',-59.601
'[00:00:00.529 01/01/2011]',-57.601
'[00:00:00.530 01/01/2011]',-55.701
'[00:00:00.531 01/01/2011]',-54.001
'[00:00:00.532 01/01/2011]',-52.801
'[00:00:00.533 01/01/2011]',-52.001
'[00:00:00.534 01/01/2011]',-51.601
'[00:00:00.535 01/01/2011]',-51.101
'[00:00:00.536 01/01/2011]',-50.301
'[00:00:00.537 01/01/2011]',-49.201
'[00:00:00.538 01/01/2011]',-47.901
'[00:00:00.539 01/01/2011]',-46.901
'[00:00:00.540 01/01/2011]',-46.201
'[00:00:00.541 01/01/2011]',-45.901
'[00:00:00.542 01/01/2011]',-45.401
'[00:00:00.543 01/01/2011]',-44.701
'[00:00:00.544 01/01/2011]',-43.701
'[00:00:00.545 01/01/2011]',-42.601
'[00:00:00.546 01/01/2011]',-42.101
'[00:00:00.547 01/01/2011]',-42.501
'[00:00:00.548 01/01/2011]',-44.001
'[00:00:00.549 01/01/2011]',-45.901
'[00:00:00.550 01/01/2011]',-47.601
'[00:00:00.551 01/01/2011]',-48.401
'[00:00:00.552 01/01/2011]',-48.101
'[00:00:00.553 01/01/2011]',-47.001
'[00:00:00.554 01/01/2011]',-46.101
'[00:00:00.555 01/01/2011]',-45.901
'[00:00:00.556 01/01/2011]',-46.901
'[00:00:00.557 01/01/2011]',-48.701
'[00:00:00.558 01/01/2011]',-50.701
'[00:00:00.559 01/01/2011]',-52.101
'[00:00:00.560 01/01/2011]',-52.401
'[00:00:00.561 01/01/2011]',-51.601
'[00:00:00.562 01/01/2011]',-50.201
'[00:00:00.563 01/01/2011]',-48.701
'[00:00:00.564 01/01/2011]',-48.001
'[00:00:00.565 01/01/2011]',-48.101
'[00:00:00.566 01/01/2011]',-48.901
'[00:00:00.567 01/01/2011]',-49.901
'[00:00:00.568 01/01/2011]',-50.501
'[00:00:00.569 01/01/2011]',-50.501
'[00:00:00.570 01/01/2011]',-49.901
'[00:00:00.571 01/01/2011]',-48.901
'[00:00:00.572 01/01/2011]',-47.901
'[00:00:00.573 01/01/2011]',-47.001
'[00:00:00.574 01/01/2011]',-46.001
'[00:00:00.575 01/01/2011]',-45.001
'[00:00:00.576 01/01/2011]',-44.201
'[00:00:00.577 01/01/2011]',-43.901
'[00:00:00.578 01/01/2011]',-44.401
'[00:00:00.579 01/01/2011]',-45.501
'[00:00:00.580 01/01/2011]',-46.301
'[00:00:00.581 01/01/2011]',-46.201
'[00:00:00.582 01/01/2011]',-44.701
'[00:00:00.583 01/01/2011]',-42.101
'[00:00:00.584 01/01/2011]',-39.101
'[00:00:00.585 01/01/2011]',-36.901
'[00:00:00.586 01/01/2011]',-35.701
'[00:00:00.587 01/01/2011]',-35.401
'[00:00:00.588 01/01/2011]',-35.301
'[00:00:00.589 01/01/2011]',-34.501
'[00:00:00.590 01/01/2011]',-33.101
'[00:00:00.591 01/01/2011]',-31.500
'[00:00:00.592 01/01/2011]',-30.500
'[00:00:00.593 01/01/2011]',-30.400
'[00:00:00.594 01/01/2011]',-31.100
'[00:00:00.595 01/01/2011]',-31.800
'[00:00:00.596 01/01/2011]',-31.800
'[00:00:00.597 01/01/2011]',-30.600
'[00:00:00.598 01/01/2011]',-28.500
'[00:00:00.599 01/01/2011]',-26.400
'[00:00:00.600 01/01/2011]',-24.900
'[00:00:00.601 01/01/2011]',-24.500
'[00:00:00.602 01/01/2011]',-24.900
'[00:00:00.603 01/01/2011]',-25.500
'[00:00:00.604 01/01/2011]',-25.500
'[00:00:00.605 01/01/2011]',-24.600
'[00:00:00.606 01/01/2011]',-22.900
'[00:00:00.607 01/01/2011]',-21.100
'[00:00:00.608 01/01/2011]',-19.800
'[00:00:00.609 01/01/2011]',-19.300
'[00:00:00.610 01/01/2011]',-19.700
'[00:00:00.611 01/01/2011]',-20.500
'[00:00:00.612 01/01/2011]',-21.300
'[00:00:00.613 01/01/2011]',-22.000
'[00:00:00.614 01/01/2011]',-22.500
'[00:00:00.615 01/01/2011]',-23.000
'[00:00:00.616 01/01/2011]',-23.200
'[00:00:00.617 01/01/2011]',-22.500
'[00:00:00.618 01/01/2011]',-20.000
'[00:00:00.619 01/01/2011]',-15.400
'[00:00:00.620 01/01/2011]',-8.500
'[00:00:00.621 01/01/2011]',0.100
'[00:00:00.622 01/01/2011]',9.700
'[00:00:00.623 01/01/2011]',19.800
'[00:00:00.624 01/01/2011]',29.900
'[00:00:00.625 01/01/2011]',39.901
'[00:00:00.626 01/01/2011]',49.201
'[00:00:00.627 01/01/2011]',57.401
'[00:00:00.628 01/01/2011]',63.801
'[00:00:00.629 01/01/2011]',68.201
'[00:00:00.630 01/01/2011]',70.701
'[00:00:00.631 01/01/2011]',72.101
'[00:00:00.632 01/01/2011]',73.001
'[00:00:00.633 01/01/2011]',73.601
'[00:00:00.634 01/01/2011]',73.701
'[00:00:00.635 01/01/2011]',73.201
'[00:00:00.636 01/01/2011]',72.001
'[00:00:00.637 01/01/2011]',70.401
'[00:00:00.638 01/01/2011]',69.101
'[00:00:00.639 01/01/2011]',68.201
'[00:00:00.640 01/01/2011]',67.301
'[00:00:00.641 01/01/2011]',65.701
'[00:00:00.642 01/01/2011]',62.401
'[00:00:00.643 01/01/2011]',56.801
'[00:00:00.644 01/01/2011]',49.101
'[00:00:00.645 01/01/2011]',39.601
'[00:00:00.646 01/01/2011]',28.700
'[00:00:00.647 01/01/2011]',17.100
'[00:00:00.648 01/01/2011]',5.300
'[00:00:00.649 01/01/2011]',-5.400
'[00:00:00.650 01/01/2011]',-13.400
'[00:00:00.651 01/01/2011]',-17.200
'[00:00:00.652 01/01/2011]',-16.000
'[00:00:00.653 01/01/2011]',-10.500
'[00:00:00.654 01/01/2011]',-2.400
'[00:00:00.655 01/01/2011]',5.700
'[00:00:00.656 01/01/2011]',11.900
'[00:00:00.657 01/01/2011]',15.100
'[00:00:00.658 01/01/2011]',15.800
'[00:00:00.659 01/01/2011]',15.300
'[00:00:00.660 01/01/2011]',15.100
'[00:00:00.661 01/01/2011]',15.800
'[00:00:00.662 01/01/2011]',17.400
'[00:00:00.663 01/01/2011]',19.000
'[00:00:00.664 01/01/2011]',19.800
'[00:00:00.665 01/01/2011]',19.500
'[00:00:00.666 01/01/2011]',18.300
'[00:00:00.667 01/01/2011]',17.000
'[00:00:00.668 01/01/2011]',16.500
'[00:00:00.669 01/01/2011]',17.000
'[00:00:00.670 01/01/2011]',18.200
'[00:00:00.671 01/01/2011]',19.300
'[00:00:00.672 01/01/2011]',19.500
'[00:00:00.673 01/01/2011]',18.700
'[00:00:00.674 01/01/2011]',17.200
'[00:00:00.675 01/01/2011]',16.000
'[00:00:00.676 01/01/2011]',15.700
'[00:00:00.677 01/01/2011]',16.300
'[00:00:00.678 01/01/2011]',17.200
'[00:00:00.679 01/01/2011]',17.400
'[00:00:00.680 01/01/2011]',16.500
'[00:00:00.681 01/01/2011]',14.400
'[00:00:00.682 01/01/2011]',11.900
'[00:00:00.683 01/01/2011]',10.000
'[00:00:00.684 01/01/2011]',9.100
'[00:00:00.685 01/01/2011]',9.400
'[00:00:00.686 01/01/2011]',10.300
'[00:00:00.687 01/01/2011]',11.300
'[00:00:00.688 01/01/2011]',12.100
'[00:00:00.689 01/01/2011]',12.600
'[00:00:00.690 01/01/2011]',12.800
'[00:00:00.691 01/01/2011]',12.900
'[00:00:00.692 01/01/2011]',12.600
'[00:00:00.693 01/01/2011]',11.800
'[00:00:00.694 01/01/2011]',10.500
'[00:00:00.695 01/01/2011]',9.000
'[00:00:00.696 01/01/2011]',8.000
'[00:00:00.697 01/01/2011]',7.700
'[00:00:00.698 01/01/2011]',8.200
'[00:00:00.699 01/01/2011]',9.000
'[00:00:00.700 01/01/2011]',9.500
'[00:00:00.701 01/01/2011]',9.100
'[00:00:00.702 01/01/2011]',7.900
'[00:00:00.703 01/01/2011]',6.500
'[00:00:00.704 01/01/2011]',5.600
'[00:00:00.705 01/01/2011]',5.600
'[00:00:00.706 01/01/2011]',6.300
'[00:00:00.707 01/01/2011]',7.400
'[00:00:00.708 01/01/2011]',8.400
'[00:00:00.709 01/01/2011]',9.100
'[00:00:00.710 01/01/2011]',9.600
'[00:00:00.711 01/01/2011]',10.000
'[00:00:00.712 01/01/2011]',10.300
'[00:00:00.713 01/01/2011]',10.300
'[00:00:00.714 01/01/2011]',9.800
'[00:00:00.715 01/01/2011]',9.000
'[00:00:00.716 01/01/2011]',8.100
'[00:00:00.717 01/01/2011]',7.500
'[00:00:00.718 01/01/2011]',7.300
'[00:00:00.719 01/01/2011]',7.400
'[00:00:00.720 01/01/2011]',7.600
'[00:00:00.721 01/01/2011]',7.800
'[00:00:00.722 01/01/2011]',8.200
'[00:00:00.723 01/01/2011]',9.000
'[00:00:00.724 01/01/2011]',10.000
'[00:00:00.725 01/01/2011]',10.900
'[00:00:00.726 01/01/2011]',11.200
'[00:00:00.727 01/01/2011]',10.900
'[00:00:00.728 01/01/2011]',10.000
'[00:00:00.729 01/01/2011]',9.300
'[00:00:00.730 01/01/2011]',9.000
'[00:00:00.731 01/01/2011]',9.100
'[00:00:00.732 01/01/2011]',9.200
'[00:00:00.733 01/01/2011]',9.000
'[00:00:00.734 01/01/2011]',8.200
'[00:00:00.735 01/01/2011]',7.200
'[00:00:00.736 01/01/2011]',6.300
'[00:00:00.737 01/01/2011]',6.000
'[00:00:00.738 01/01/2011]',6.100
'[00:00:00.739 01/01/2011]',6.400
'[00:00:00.740 01/01/2011]',6.800
'[00:00:00.741 01/01/2011]',7.000
'[00:00:00.742 01/01/2011]',7.200
'[00:00:00.743 01/01/2011]',7.300
'[00:00:00.744 01/01/2011]',7.200
'[00:00:00.745 01/01/2011]',6.700
'[00:00:00.746 01/01/2011]',6.100
'[00:00:00.747 01/01/2011]',5.700
'[00:00:00.748 01/01/2011]',5.800
'[00:00:00.749 01/01/2011]',6.400
'[00:00:00.750 01/01/2011]',7.300
'[00:00:00.751 01/01/2011]',8.100
'[00:00:00.752 01/01/2011]',8.400
'[00:00:00.753 01/01/2011]',8.500
'[00:00:00.754 01/01/2011]',8.700
'[00:00:00.755 01/01/2011]',9.300
'[00:00:00.756 01/01/2011]',10.100
'[00:00:00.757 01/01/2011]',10.800
'[00:00:00.758 01/01/2011]',10.900
'[00:00:00.759 01/01/2011]',10.500
'[00:00:00.760 01/01/2011]',10.100
'[00:00:00.761 01/01/2011]',10.300
'[00:00:00.762 01/01/2011]',10.900
'[00:00:00.763 01/01/2011]',11.500
'[00:00:00.764 01/01/2011]',11.400
'[00:00:00.765 01/01/2011]',10.200
'[00:00:00.766 01/01/2011]',8.400
'[00:00:00.767 01/01/2011]',6.900
'[00:00:00.768 01/01/2011]',6.300
'[00:00:00.769 01/01/2011]',7.000
'[00:00:00.770 01/01/2011]',8.400
'[00:00:00.771 01/01/2011]',9.800
'[00:00:00.772 01/01/2011]',10.500
'[00:00:00.773 01/01/2011]',10.500
'[00:00:00.774 01/01/2011]',10.100
'[00:00:00.775 01/01/2011]',9.700
'[00:00:00.776 01/01/2011]',9.400
'[00:00:00.777 01/01/2011]',9.000
'[00:00:00.778 01/01/2011]',8.500
'[00:00:00.779 01/01/2011]',7.800
'[00:00:00.780 01/01/2011]',7.200
'[00:00:00.781 01/01/2011]',6.900
'[00:00:00.782 01/01/2011]',6.800
'[00:00:00.783 01/01/2011]',6.500
'[00:00:00.784 01/01/2011]',5.800
'[00:00:00.785 01/01/2011]',4.800
'[00:00:00.786 01/01/2011]',3.700
'[00:00:00.787 01/01/2011]',3.100
'[00:00:00.788 01/01/2011]',3.200
'[00:00:00.789 01/01/2011]',3.800
'[00:00:00.790 01/01/2011]',4.500
'[00:00:00.791 01/01/2011]',4.900
'[00:00:00.792 01/01/2011]',4.700
'[00:00:00.793 01/01/2011]',3.800
'[00:00:00.794 01/01/2011]',2.500
'[00:00:00.795 01/01/2011]',1.000
'[00:00:00.796 01/01/2011]',-0.300
'[00:00:00.797 01/01/2011]',-1.000
'[00:00:00.798 01/01/2011]',-0.900
'[00:00:00.799 01/01/2011]',0.000
'[00:00:00.800 01/01/2011]',1.200
'[00:00:00.801 01/01/2011]',2.300
'[00:00:00.802 01/01/2011]',2.500
'[00:00:00.803 01/01/2011]',1.700
'[00:00:00.804 01/01/2011]',0.300
'[00:00:00.805 01/01/2011]',-1.200
'[00:00:00.806 01/01/2011]',-2.100
'[00:00:00.807 01/01/2011]',-2.100
'[00:00:00.808 01/01/2011]',-1.500
'[00:00:00.809 01/01/2011]',-0.900
'[00:00:00.810 01/01/2011]',-0.700
'[00:00:00.811 01/01/2011]',-1.100
'[00:00:00.812 01/01/2011]',-2.300
'[00:00:00.813 01/01/2011]',-3.700
'[00:00:00.814 01/01/2011]',-5.100
'[00:00:00.815 01/01/2011]',-6.200
'[00:00:00.816 01/01/2011]',-6.700
'[00:00:00.817 01/01/2011]',-6.800
'[00:00:00.818 01/01/2011]',-6.600
'[00:00:00.819 01/01/2011]',-6.200
'[00:00:00.820 01/01/2011]',-5.800
'[00:00:00.821 01/01/2011]',-5.600
'[00:00:00.822 01/01/2011]',-5.700
'[00:00:00.823 01/01/2011]',-6.100
'[00:00:00.824 01/01/2011]',-6.600
'[00:00:00.825 01/01/2011]',-7.300
'[00:00:00.826 01/01/2011]',-8.100
'[00:00:00.827 01/01/2011]',-8.800
'[00:00:00.828 01/01/2011]',-9.500
'[00:00:00.829 01/01/2011]',-10.000
'[00:00:00.830 01/01/2011]',-10.200
'[00:00:00.831 01/01/2011]',-10.400
'[00:00:00.832 01/01/2011]',-10.800
'[00:00:00.833 01/01/2011]',-11.700
'[00:00:00.834 01/01/2011]',-13.200
'[00:00:00.835 01/01/2011]',-15.200
'[00:00:00.836 01/01/2011]',-17.200
'[00:00:00.837 01/01/2011]',-18.700
'[00:00:00.838 01/01/2011]',-19.000
'[00:00:00.839 01/01/2011]',-18.400
'[00:00:00.840 01/01/2011]',-17.300
'[00:00:00.841 01/01/2011]',-16.400
'[00:00:00.842 01/01/2011]',-16.100
'[00:00:00.843 01/01/2011]',-16.600
'[00:00:00.844 01/01/2011]',-17.700
'[00:00:00.845 01/01/2011]',-18.500
'[00:00:00.846 01/01/2011]',-18.800
'[00:00:00.847 01/01/2011]',-18.400
'[00:00:00.848 01/01/2011]',-17.900
'[00:00:00.849 01/01/2011]',-17.900
'[00:00:00.850 01/01/2011]',-18.900
'[00:00:00.851 01/01/2011]',-20.900
'[00:00:00.852 01/01/2011]',-23.100
'[00:00:00.853 01/01/2011]',-24.700
'[00:00:00.854 01/01/2011]',-24.900
'[00:00:00.855 01/01/2011]',-23.700
'[00:00:00.856 01/01/2011]',-21.600
'[00:00:00.857 01/01/2011]',-19.900
'[00:00:00.858 01/01/2011]',-19.400
'[00:00:00.859 01/01/2011]',-20.700
'[00:00:00.860 01/01/2011]',-23.100
'[00:00:00.861 01/01/2011]',-25.500
'[00:00:00.862 01/01/2011]',-26.700
'[00:00:00.863 01/01/2011]',-26.200
'[00:00:00.864 01/01/2011]',-24.300
'[00:00:00.865 01/01/2011]',-22.100
'[00:00:00.866 01/01/2011]',-21.000
'[00:00:00.867 01/01/2011]',-21.600
'[00:00:00.868 01/01/2011]',-23.700
'[00:00:00.869 01/01/2011]',-26.400
'[00:00:00.870 01/01/2011]',-28.600
'[00:00:00.871 01/01/2011]',-29.700
'[00:00:00.872 01/01/2011]',-29.800
'[00:00:00.873 01/01/2011]',-29.400
'[00:00:00.874 01/01/2011]',-29.200
'[00:00:00.875 01/01/2011]',-29.500
'[00:00:00.876 01/01/2011]',-29.900
'[00:00:00.877 01/01/2011]',-30.500
'[00:00:00.878 01/01/2011]',-30.900
'[00:00:00.879 01/01/2011]',-31.500
'[00:00:00.880 01/01/2011]',-32.400
'[00:00:00.881 01/01/2011]',-33.601
'[00:00:00.882 01/01/2011]',-34.501
'[00:00:00.883 01/01/2011]',-34.601
'[00:00:00.884 01/01/2011]',-33.901
'[00:00:00.885 01/01/2011]',-33.001
'[00:00:00.886 01/01/2011]',-32.500
'[00:00:00.887 01/01/2011]',-33.301
'[00:00:00.888 01/01/2011]',-35.401
'[00:00:00.889 01/01/2011]',-37.801
'[00:00:00.890 01/01/2011]',-39.601
'[00:00:00.891 01/01/2011]',-40.101
'[00:00:00.892 01/01/2011]',-39.401
'[00:00:00.893 01/01/2011]',-38.201
'[00:00:00.894 01/01/2011]',-37.401
'[00:00:00.895 01/01/2011]',-37.501
'[00:00:00.896 01/01/2011]',-38.301
'[00:00:00.897 01/01/2011]',-39.401
'[00:00:00.898 01/01/2011]',-40.101
'[00:00:00.899 01/01/2011]',-40.301
'[00:00:00.900 01/01/2011]',-40.101
'[00:00:00.901 01/01/2011]',-40.001
'[00:00:00.902 01/01/2011]',-40.201
'[00:00:00.903 01/01/2011]',-40.601
'[00:00:00.904 01/01/2011]',-40.901
'[00:00:00.905 01/01/2011]',-40.901
'[00:00:00.906 01/01/2011]',-40.401
'[00:00:00.907 01/01/2011]',-39.801
'[00:00:00.908 01/01/2011]',-39.401
'[00:00:00.909 01/01/2011]',-39.301
'[00:00:00.910 01/01/2011]',-39.601
'[00:00:00.911 01/01/2011]',-39.901
'[00:00:00.912 01/01/2011]',-40.101
'[00:00:00.913 01/01/2011]',-39.901
'[00:00:00.914 01/01/2011]',-39.701
'[00:00:00.915 01/01/2011]',-39.601
'[00:00:00.916 01/01/2011]',-39.801
'[00:00:00.917 01/01/2011]',-40.301
'[00:00:00.918 01/01/2011]',-41.101
'[00:00:00.919 01/01/2011]',-41.701
'[00:00:00.920 01/01/2011]',-42.001
'[00:00:00.921 01/01/2011]',-41.901
'[00:00:00.922 01/01/2011]',-41.501
'[00:00:00.923 01/01/2011]',-40.801
'[00:00:00.924 01/01/2011]',-39.901
'[00:00:00.925 01/01/2011]',-38.901
'[00:00:00.926 01/01/2011]',-37.901
'[00:00:00.927 01/01/2011]',-37.201
'[00:00:00.928 01/01/2011]',-36.901
'[00:00:00.929 01/01/2011]',-37.101
'[00:00:00.930 01/01/2011]',-37.701
'[00:00:00.931 01/01/2011]',-38.501
'[00:00:00.932 01/01/2011]',-39.101
'[00:00:00.933 01/01/2011]',-39.401
'[00:00:00.934 01/01/2011]',-39.101
'[00:00:00.935 01/01/2011]',-38.201
'[00:00:00.936 01/01/2011]',-37.001
'[00:00:00.937 01/01/2011]',-35.801
'[00:00:00.938 01/01/2011]',-34.901
'[00:00:00.939 01/01/2011]',-34.801
'[00:00:00.940 01/01/2011]',-35.701
'[00:00:00.941 01/01/2011]',-37.301
'[00:00:00.942 01/01/2011]',-38.901
'[00:00:00.943 01/01/2011]',-39.701
'[00:00:00.944 01/01/2011]',-39.301
'[00:00:00.945 01/01/2011]',-37.601
'[00:00:00.946 01/01/2011]',-35.401
'[00:00:00.947 01/01/2011]',-33.501
'[00:00:00.948 01/01/2011]',-32.400
'[00:00:00.949 01/01/2011]',-32.200
'[00:00:00.950 01/01/2011]',-32.500
'[00:00:00.951 01/01/2011]',-32.500
'[00:00:00.952 01/01/2011]',-32.200
'[00:00:00.953 01/01/2011]',-31.600
'[00:00:00.954 01/01/2011]',-31.400
'[00:00:00.955 01/01/2011]',-31.900
'[00:00:00.956 01/01/2011]',-32.801
'[00:00:00.957 01/01/2011]',-33.601
'[00:00:00.958 01/01/2011]',-33.901
'[00:00:00.959 01/01/2011]',-33.601
'[00:00:00.960 01/01/2011]',-33.001
'[00:00:00.961 01/01/2011]',-32.600
'[00:00:00.962 01/01/2011]',-32.801
'[00:00:00.963 01/01/2011]',-33.101
'[00:00:00.964 01/01/2011]',-33.101
'[00:00:00.965 01/01/2011]',-32.300
'[00:00:00.966 01/01/2011]',-30.800
'[00:00:00.967 01/01/2011]',-29.200
'[00:00:00.968 01/01/2011]',-28.400
'[00:00:00.969 01/01/2011]',-28.500
'[00:00:00.970 01/01/2011]',-29.100
'[00:00:00.971 01/01/2011]',-29.200
'[00:00:00.972 01/01/2011]',-28.000
'[00:00:00.973 01/01/2011]',-25.500
'[00:00:00.974 01/01/2011]',-22.600
'[00:00:00.975 01/01/2011]',-20.400
'[00:00:00.976 01/01/2011]',-19.700
'[00:00:00.977 01/01/2011]',-20.300
'[00:00:00.978 01/01/2011]',-21.200
'[00:00:00.979 01/01/2011]',-21.500
'[00:00:00.980 01/01/2011]',-20.900
'[00:00:00.981 01/01/2011]',-19.900
'[00:00:00.982 01/01/2011]',-19.300
'[00:00:00.983 01/01/2011]',-19.600
'[00:00:00.984 01/01/2011]',-20.500
'[00:00:00.985 01/01/2011]',-21.000
'[00:00:00.986 01/01/2011]',-20.300
'[00:00:00.987 01/01/2011]',-18.400
'[00:00:00.988 01/01/2011]',-15.900
'[00:00:00.989 01/01/2011]',-14.100
'[00:00:00.990 01/01/2011]',-13.700
'[00:00:00.991 01/01/2011]',-14.600
'[00:00:00.992 01/01/2011]',-15.900
'[00:00:00.993 01/01/2011]',-16.400
'[00:00:00.994 01/01/2011]',-15.800
'[00:00:00.995 01/01/2011]',-14.400
'[00:00:00.996 01/01/2011]',-13.000
'[00:00:00.997 01/01/2011]',-12.400
'[00:00:00.998 01/01/2011]',-12.700
'[00:00:00.999 01/01/2011]',-13.300
'[00:00:01.000 01/01/2011]',-13.800
'[00:00:01.001 01/01/2011]',-13.800
'[00:00:01.002 01/01/2011]',-13.400
'[00:00:01.003 01/01/2011]',-13.100
'[00:00:01.004 01/01/2011]',-13.200
'[00:00:01.005 01/01/2011]',-13.900
'[00:00:01.006 01/01/2011]',-14.500
'[00:00:01.007 01/01/2011]',-14.800
'[00:00:01.008 01/01/2011]',-14.400
'[00:00:01.009 01/01/2011]',-13.400
'[00:00:01.010 01/01/2011]',-12.500
'[00:00:01.011 01/01/2011]',-12.100
'[00:00:01.012 01/01/2011]',-12.600
'[00:00:01.013 01/01/2011]',-14.000
'[00:00:01.014 01/01/2011]',-16.000
'[00:00:01.015 01/01/2011]',-18.200
'[00:00:01.016 01/01/2011]',-20.200
'[00:00:01.017 01/01/2011]',-21.800
'[00:00:01.018 01/01/2011]',-22.800
'[00:00:01.019 01/01/2011]',-23.100
'[00:00:01.020 01/01/2011]',-23.000
'[00:00:01.021 01/01/2011]',-22.900
'[00:00:01.022 01/01/2011]',-23.200
'[00:00:01.023 01/01/2011]',-24.100
'[00:00:01.024 01/01/2011]',-25.400
'[00:00:01.025 01/01/2011]',-26.800
'[00:00:01.026 01/01/2011]',-27.800
'[00:00:01.027 01/01/2011]',-27.900
'[00:00:01.028 01/01/2011]',-27.400
'[00:00:01.029 01/01/2011]',-26.600
'[00:00:01.030 01/01/2011]',-26.000
'[00:00:01.031 01/01/2011]',-25.700
'[00:00:01.032 01/01/2011]',-25.700
'[00:00:01.033 01/01/2011]',-25.700
'[00:00:01.034 01/01/2011]',-25.500
'[00:00:01.035 01/01/2011]',-25.300
'[00:00:01.036 01/01/2011]',-25.300
'[00:00:01.037 01/01/2011]',-25.700
'[00:00:01.038 01/01/2011]',-26.400
'[00:00:01.039 01/01/2011]',-27.100
'[00:00:01.040 01/01/2011]',-27.300
'[00:00:01.041 01/01/2011]',-26.600
'[00:00:01.042 01/01/2011]',-25.300
'[00:00:01.043 01/01/2011]',-23.700
'[00:00:01.044 01/01/2011]',-22.400
'[00:00:01.045 01/01/2011]',-21.700
'[00:00:01.046 01/01/2011]',-21.700
'[00:00:01.047 01/01/2011]',-22.100
'[00:00:01.048 01/01/2011]',-22.300
'[00:00:01.049 01/01/2011]',-21.900
'[00:00:01.050 01/01/2011]',-20.800
'[00:00:01.051 01/01/2011]',-19.200
'[00:00:01.052 01/01/2011]',-17.400
'[00:00:01.053 01/01/2011]',-15.800
'[00:00:01.054 01/01/2011]',-14.800
'[00:00:01.055 01/01/2011]',-14.400
'[00:00:01.056 01/01/2011]',-14.300
'[00:00:01.057 01/01/2011]',-14.200
'[00:00:01.058 01/01/2011]',-13.900
'[00:00:01.059 01/01/2011]',-13.400
'[00:00:01.060 01/01/2011]',-13.100
'[00:00:01.061 01/01/2011]',-13.200
'[00:00:01.062 01/01/2011]',-13.800
'[00:00:01.063 01/01/2011]',-14.700
'[00:00:01.064 01/01/2011]',-15.300
'[00:00:01.065 01/01/2011]',-15.000
'[00:00:01.066 01/01/2011]',-13.800
'[00:00:01.067 01/01/2011]',-11.900
'[00:00:01.068 01/01/2011]',-10.000
'[00:00:01.069 01/01/2011]',-8.700
'[00:00:01.070 01/01/2011]',-8.200
'[00:00:01.071 01/01/2011]',-8.400
'[00:00:01.072 01/01/2011]',-8.500
'[00:00:01.073 01/01/2011]',-8.100
'[00:00:01.074 01/01/2011]',-7.100
'[00:00:01.075 01/01/2011]',-5.800
'[00:00:01.076 01/01/2011]',-4.700
'[00:00:01.077 01/01/2011]',-4.000
'[00:00:01.078 01/01/2011]',-3.500
'[00:00:01.079 01/01/2011]',-3.000
'[00:00:01.080 01/01/2011]',-2.200
'[00:00:01.081 01/01/2011]',-1.000
'[00:00:01.082 01/01/2011]',0.100
'[00:00:01.083 01/01/2011]',0.800
'[00:00:01.084 01/01/2011]',1.200
'[00:00:01.085 01/01/2011]',1.300
'[00:00:01.086 01/01/2011]',1.700
'[00:00:01.087 01/01/2011]',2.300
'[00:00:01.088 01/01/2011]',2.900
'[00:00:01.089 01/01/2011]',3.100
'[00:00:01.090 01/01/2011]',2.500
'[00:00:01.091 01/01/2011]',1.100
'[00:00:01.092 01/01/2011]',-0.500
'[00:00:01.093 01/01/2011]',-1.900
'[00:00:01.094 01/01/2011]',-2.400
'[00:00:01.095 01/01/2011]',-1.600
'[00:00:01.096 01/01/2011]',0.600
'[00:00:01.097 01/01/2011]',4.100
'[00:00:01.098 01/01/2011]',9.000
'[00:00:01.099 01/01/2011]',15.400
'[00:00:01.100 01/01/2011]',23.300
'[00:00:01.101 01/01/2011]',32.600
'[00:00:01.102 01/01/2011]',42.901
'[00:00:01.103 01/01/2011]',53.401
'[00:00:01.104 01/01/2011]',63.501
'[00:00:01.105 01/01/2011]',72.301
'[00:00:01.106 01/01/2011]',79.401
'[00:00:01.107 01/01/2011]',84.801
'[00:00:01.108 01/01/2011]',88.801
'[00:00:01.109 01/01/2011]',92.001
'[00:00:01.110 01/01/2011]',94.401
'[00:00:01.111 01/01/2011]',95.801
'[00:00:01.112 01/01/2011]',95.701
'[00:00:01.113 01/01/2011]',93.901
'[00:00:01.114 01/01/2011]',90.701
'[00:00:01.115 01/01/2011]',87.101
'[00:00:01.116 01/01/2011]',84.001
'[00:00:01.117 01/01/2011]',82.301
'[00:00:01.118 01/01/2011]',81.801
'[00:00:01.119 01/01/2011]',81.701
'[00:00:01.120 01/01/2011]',80.601
'[00:00:01.121 01/01/2011]',77.001
'[00:00:01.122 01/01/2011]',70.301
'[00:00:01.123 01/01/2011]',60.701
'[00:00:01.124 01/01/2011]',48.901
'[00:00:01.125 01/01/2011]',36.201
'[00:00:01.126 01/01/2011]',24.200
'[00:00:01.127 01/01/2011]',14.100
'[00:00:01.128 01/01/2011]',6.900
'[00:00:01.129 01/01/2011]',3.000
'[00:00:01.130 01/01/2011]',2.200
'[00:00:01.131 01/01/2011]',4.200
'[00:00:01.132 01/01/2011]',8.200
'[00:00:01.133 01/01/2011]',13.400
'[00:00:01.134 01/01/2011]',19.100
'[00:00:01.135 01/01/2011]',24.300
'[00:00:01.136 01/01/2011]',28.200
'[00:00:01.137 01/01/2011]',30.300
'[00:00:01.138 01/01/2011]',30.800
'[00:00:01.139 01/01/2011]',30.000
'[00:00:01.140 01/01/2011]',28.800
'[00:00:01.141 01/01/2011]',28.000
'[00:00:01.142 01/01/2011]',27.800
'[00:00:01.143 01/01/2011]',28.200
'[00:00:01.144 01/01/2011]',29.000
'[00:00:01.145 01/01/2011]',29.700
'[00:00:01.146 01/01/2011]',30.200
'[00:00:01.147 01/01/2011]',30.300
'[00:00:01.148 01/01/2011]',30.100
'[00:00:01.149 01/01/2011]',29.700
'[00:00:01.150 01/01/2011]',29.300
'[00:00:01.151 01/01/2011]',28.900
'[00:00:01.152 01/01/2011]',28.800
'[00:00:01.153 01/01/2011]',28.800
'[00:00:01.154 01/01/2011]',29.100
'[00:00:01.155 01/01/2011]',29.200
'[00:00:01.156 01/01/2011]',28.900
'[00:00:01.157 01/01/2011]',28.300
'[00:00:01.158 01/01/2011]',27.400
'[00:00:01.159 01/01/2011]',26.500
'[00:00:01.160 01/01/2011]',25.900
'[00:00:01.161 01/01/2011]',25.800
'[00:00:01.162 01/01/2011]',26.200
'[00:00:01.163 01/01/2011]',26.700
'[00:00:01.164 01/01/2011]',27.100
'[00:00:01.165 01/01/2011]',27.300
'[00:00:01.166 01/01/2011]',27.200
'[00:00:01.167 01/01/2011]',27.000
'[00:00:01.168 01/01/2011]',26.800
'[00:00:01.169 01/01/2011]',26.900
'[00:00:01.170 01/01/2011]',27.400
'[00:00:01.171 01/01/2011]',28.100
'[00:00:01.172 01/01/2011]',28.800
'[00:00:01.173 01/01/2011]',29.300
'[00:00:01.174 01/01/2011]',29.400
'[00:00:01.175 01/01/2011]',29.100
'[00:00:01.176 01/01/2011]',28.600
'[00:00:01.177 01/01/2011]',28.100
'[00:00:01.178 01/01/2011]',27.900
'[00:00:01.179 01/01/2011]',28.300
'[00:00:01.180 01/01/2011]',29.000
'[00:00:01.181 01/01/2011]',29.700
'[00:00:01.182 01/01/2011]',30.100
'[00:00:01.183 01/01/2011]',30.100
'[00:00:01.184 01/01/2011]',29.600
'[00:00:01.185 01/01/2011]',29.100
'[00:00:01.186 01/01/2011]',29.000
'[00:00:01.187 01/01/2011]',29.500
'[00:00:01.188 01/01/2011]',30.600
'[00:00:01.189 01/01/2011]',31.700
'[00:00:01.190 01/01/2011]',32.400
'[00:00:01.191 01/01/2011]',32.500
'[00:00:01.192 01/01/2011]',32.300
'[00:00:01.193 01/01/2011]',32.000
'[00:00:01.194 01/01/2011]',32.100
'[00:00:01.195 01/01/2011]',32.200
'[00:00:01.196 01/01/2011]',31.800
'[00:00:01.197 01/01/2011]',30.700
'[00:00:01.198 01/01/2011]',29.000
'[00:00:01.199 01/01/2011]',27.300
'[00:00:01.200 01/01/2011]',26.300
'[00:00:01.201 01/01/2011]',26.400
'[00:00:01.202 01/01/2011]',27.300
'[00:00:01.203 01/01/2011]',28.500
'[00:00:01.204 01/01/2011]',29.100
'[00:00:01.205 01/01/2011]',29.100
'[00:00:01.206 01/01/2011]',28.500
'[00:00:01.207 01/01/2011]',27.800
'[00:00:01.208 01/01/2011]',27.500
'[00:00:01.209 01/01/2011]',27.500
'[00:00:01.210 01/01/2011]',27.700
'[00:00:01.211 01/01/2011]',28.100
'[00:00:01.212 01/01/2011]',28.200
'[00:00:01.213 01/01/2011]',28.100
'[00:00:01.214 01/01/2011]',27.400
'[00:00:01.215 01/01/2011]',26.200
'[00:00:01.216 01/01/2011]',24.500
'[00:00:01.217 01/01/2011]',22.900
'[00:00:01.218 01/01/2011]',21.400
'[00:00:01.219 01/01/2011]',20.200
'[00:00:01.220 01/01/2011]',18.900
'[00:00:01.221 01/01/2011]',17.200
'[00:00:01.222 01/01/2011]',14.900
'[00:00:01.223 01/01/2011]',12.400
'[00:00:01.224 01/01/2011]',10.400
'[00:00:01.225 01/01/2011]',9.500
'[00:00:01.226 01/01/2011]',9.700
'[00:00:01.227 01/01/2011]',10.500
'[00:00:01.228 01/01/2011]',11.000
'[00:00:01.229 01/01/2011]',10.800
'[00:00:01.230 01/01/2011]',10.100
'[00:00:01.231 01/01/2011]',9.400
'[00:00:01.232 01/01/2011]',9.200
'[00:00:01.233 01/01/2011]',9.600
'[00:00:01.234 01/01/2011]',10.500
'[00:00:01.235 01/01/2011]',11.700
'[00:00:01.236 01/01/2011]',13.100
'[00:00:01.237 01/01/2011]',14.400
'[00:00:01.238 01/01/2011]',15.700
'[00:00:01.239 01/01/2011]',16.800
'[00:00:01.240 01/01/2011]',17.600
'[00:00:01.241 01/01/2011]',18.200
'[00:00:01.242 01/01/2011]',18.800
'[00:00:01.243 01/01/2011]',20.000
'[00:00:01.244 01/01/2011]',21.600
'[00:00:01.245 01/01/2011]',23.700
'[00:00:01.246 01/01/2011]',25.600
'[00:00:01.247 01/01/2011]',27.100
'[00:00:01.248 01/01/2011]',28.200
'[00:00:01.249 01/01/2011]',29.300
'[00:00:01.250 01/01/2011]',30.900
'[00:00:01.251 01/01/2011]',32.901
'[00:00:01.252 01/01/2011]',34.701
'[00:00:01.253 01/01/2011]',35.401
'[00:00:01.254 01/01/2011]',34.701
'[00:00:01.255 01/01/2011]',32.700
'[00:00:01.256 01/01/2011]',30.300
'[00:00:01.257 01/01/2011]',28.400
'[00:00:01.258 01/01/2011]',27.700
'[00:00:01.259 01/01/2011]',28.300
'[00:00:01.260 01/01/2011]',29.600
'[00:00:01.261 01/01/2011]',30.600
'[00:00:01.262 01/01/2011]',30.900
'[00:00:01.263 01/01/2011]',30.400
'[00:00:01.264 01/01/2011]',29.600
'[00:00:01.265 01/01/2011]',29.100
'[00:00:01.266 01/01/2011]',29.000
'[00:00:01.267 01/01/2011]',29.200
'[00:00:01.268 01/01/2011]',29.400
'[00:00:01.269 01/01/2011]',29.200
'[00:00:01.270 01/01/2011]',28.600
'[00:00:01.271 01/01/2011]',28.000
'[00:00:01.272 01/01/2011]',27.900
'[00:00:01.273 01/01/2011]',28.200
'[00:00:01.274 01/01/2011]',28.800
'[00:00:01.275 01/01/2011]',29.300
'[00:00:01.276 01/01/2011]',29.400
'[00:00:01.277 01/01/2011]',29.300
'[00:00:01.278 01/01/2011]',29.300
'[00:00:01.279 01/01/2011]',29.400
'[00:00:01.280 01/01/2011]',29.700
'[00:00:01.281 01/01/2011]',29.600
'[00:00:01.282 01/01/2011]',28.900
'[00:00:01.283 01/01/2011]',27.800
'[00:00:01.284 01/01/2011]',26.700
'[00:00:01.285 01/01/2011]',26.300
'[00:00:01.286 01/01/2011]',26.800
'[00:00:01.287 01/01/2011]',27.900
'[00:00:01.288 01/01/2011]',28.800
'[00:00:01.289 01/01/2011]',29.000
'[00:00:01.290 01/01/2011]',28.200
'[00:00:01.291 01/01/2011]',27.000
'[00:00:01.292 01/01/2011]',26.100
'[00:00:01.293 01/01/2011]',26.100
'[00:00:01.294 01/01/2011]',26.900
'[00:00:01.295 01/01/2011]',27.900
'[00:00:01.296 01/01/2011]',28.600
'[00:00:01.297 01/01/2011]',28.400
'[00:00:01.298 01/01/2011]',27.600
'[00:00:01.299 01/01/2011]',26.700
'[00:00:01.300 01/01/2011]',26.200
'[00:00:01.301 01/01/2011]',26.300
'[00:00:01.302 01/01/2011]',26.700
'[00:00:01.303 01/01/2011]',27.100
'[00:00:01.304 01/01/2011]',27.100
'[00:00:01.305 01/01/2011]',26.900
'[00:00:01.306 01/01/2011]',26.900
'[00:00:01.307 01/01/2011]',27.300
'[00:00:01.308 01/01/2011]',28.000
'[00:00:01.309 01/01/2011]',28.800
'[00:00:01.310 01/01/2011]',29.000
'[00:00:01.311 01/01/2011]',28.400
'[00:00:01.312 01/01/2011]',27.400
'[00:00:01.313 01/01/2011]',26.500
'[00:00:01.314 01/01/2011]',26.300
'[00:00:01.315 01/01/2011]',26.900
'[00:00:01.316 01/01/2011]',27.600
'[00:00:01.317 01/01/2011]',27.800
'[00:00:01.318 01/01/2011]',27.000
'[00:00:01.319 01/01/2011]',25.500
'[00:00:01.320 01/01/2011]',23.800
'[00:00:01.321 01/01/2011]',23.100
'[00:00:01.322 01/01/2011]',23.500
'[00:00:01.323 01/01/2011]',24.900
'[00:00:01.324 01/01/2011]',26.400
'[00:00:01.325 01/01/2011]',27.200
'[00:00:01.326 01/01/2011]',26.800
'[00:00:01.327 01/01/2011]',25.800
'[00:00:01.328 01/01/2011]',24.700
'[00:00:01.329 01/01/2011]',24.200
'[00:00:01.330 01/01/2011]',24.500
'[00:00:01.331 01/01/2011]',25.100
'[00:00:01.332 01/01/2011]',25.500
'[00:00:01.333 01/01/2011]',25.200
'[00:00:01.334 01/01/2011]',24.300
'[00:00:01.335 01/01/2011]',23.500
'[00:00:01.336 01/01/2011]',23.200
'[00:00:01.337 01/01/2011]',23.700
'[00:00:01.338 01/01/2011]',24.900
'[00:00:01.339 01/01/2011]',26.200
'[00:00:01.340 01/01/2011]',27.000
'[00:00:01.341 01/01/2011]',27.100
'[00:00:01.342 01/01/2011]',26.400
'[00:00:01.343 01/01/2011]',25.200
'[00:00:01.344 01/01/2011]',23.600
'[00:00:01.345 01/01/2011]',22.100
'[00:00:01.346 01/01/2011]',20.700
'[00:00:01.347 01/01/2011]',19.800
'[00:00:01.348 01/01/2011]',19.400
'[00:00:01.349 01/01/2011]',19.300
'[00:00:01.350 01/01/2011]',19.500
'[00:00:01.351 01/01/2011]',19.600
'[00:00:01.352 01/01/2011]',19.400
'[00:00:01.353 01/01/2011]',18.900
'[00:00:01.354 01/01/2011]',18.200
'[00:00:01.355 01/01/2011]',17.500
'[00:00:01.356 01/01/2011]',17.000
'[00:00:01.357 01/01/2011]',16.700
'[00:00:01.358 01/01/2011]',16.500
'[00:00:01.359 01/01/2011]',16.400
'[00:00:01.360 01/01/2011]',16.200
'[00:00:01.361 01/01/2011]',15.700
'[00:00:01.362 01/01/2011]',14.900
'[00:00:01.363 01/01/2011]',13.600
'[00:00:01.364 01/01/2011]',12.100
'[00:00:01.365 01/01/2011]',10.800
'[00:00:01.366 01/01/2011]',10.200
'[00:00:01.367 01/01/2011]',10.500
'[00:00:01.368 01/01/2011]',11.500
'[00:00:01.369 01/01/2011]',12.600
'[00:00:01.370 01/01/2011]',13.100
'[00:00:01.371 01/01/2011]',12.900
'[00:00:01.372 01/01/2011]',12.100
'[00:00:01.373 01/01/2011]',11.100
'[00:00:01.374 01/01/2011]',10.200
'[00:00:01.375 01/01/2011]',9.700
'[00:00:01.376 01/01/2011]',9.300
'[00:00:01.377 01/01/2011]',8.900
'[00:00:01.378 01/01/2011]',8.500
'[00:00:01.379 01/01/2011]',8.200
'[00:00:01.380 01/01/2011]',8.200
'[00:00:01.381 01/01/2011]',8.500
'[00:00:01.382 01/01/2011]',8.900
'[00:00:01.383 01/01/2011]',9.100
'[00:00:01.384 01/01/2011]',9.000
'[00:00:01.385 01/01/2011]',8.700
'[00:00:01.386 01/01/2011]',8.600
'[00:00:01.387 01/01/2011]',8.600
'[00:00:01.388 01/01/2011]',8.800
'[00:00:01.389 01/01/2011]',8.800
'[00:00:01.390 01/01/2011]',8.400
'[00:00:01.391 01/01/2011]',7.700
'[00:00:01.392 01/01/2011]',7.000
'[00:00:01.393 01/01/2011]',6.700
'[00:00:01.394 01/01/2011]',6.800
'[00:00:01.395 01/01/2011]',7.400
'[00:00:01.396 01/01/2011]',7.900
'[00:00:01.397 01/01/2011]',8.100
'[00:00:01.398 01/01/2011]',7.900
'[00:00:01.399 01/01/2011]',7.300
'[00:00:01.400 01/01/2011]',6.700
'[00:00:01.401 01/01/2011]',6.400
'[00:00:01.402 01/01/2011]',6.500
'[00:00:01.403 01/01/2011]',7.200
'[00:00:01.404 01/01/2011]',8.100
'[00:00:01.405 01/01/2011]',9.200
'[00:00:01.406 01/01/2011]',10.000
'[00:00:01.407 01/01/2011]',10.400
'[00:00:01.408 01/01/2011]',10.500
'[00:00:01.409 01/01/2011]',10.400
'[00:00:01.410 01/01/2011]',10.400
'[00:00:01.411 01/01/2011]',10.700
'[00:00:01.412 01/01/2011]',11.500
'[00:00:01.413 01/01/2011]',12.500
'[00:00:01.414 01/01/2011]',13.700
'[00:00:01.415 01/01/2011]',14.600
'[00:00:01.416 01/01/2011]',15.300
'[00:00:01.417 01/01/2011]',15.600
'[00:00:01.418 01/01/2011]',15.400
'[00:00:01.419 01/01/2011]',14.800
'[00:00:01.420 01/01/2011]',13.600
'[00:00:01.421 01/01/2011]',12.100
'[00:00:01.422 01/01/2011]',10.500
'[00:00:01.423 01/01/2011]',9.300
'[00:00:01.424 01/01/2011]',8.800
'[00:00:01.425 01/01/2011]',9.000
'[00:00:01.426 01/01/2011]',9.700
'[00:00:01.427 01/01/2011]',10.600
'[00:00:01.428 01/01/2011]',11.300
'[00:00:01.429 01/01/2011]',11.800
'[00:00:01.430 01/01/2011]',12.100
'[00:00:01.431 01/01/2011]',12.400
'[00:00:01.432 01/01/2011]',12.800
'[00:00:01.433 01/01/2011]',13.000
'[00:00:01.434 01/01/2011]',13.100
'[00:00:01.435 01/01/2011]',12.900
'[00:00:01.436 01/01/2011]',12.800
'[00:00:01.437 01/01/2011]',12.900
'[00:00:01.438 01/01/2011]',13.400
'[00:00:01.439 01/01/2011]',14.000
'[00:00:01.440 01/01/2011]',14.100
'[00:00:01.441 01/01/2011]',13.300
'[00:00:01.442 01/01/2011]',11.700
'[00:00:01.443 01/01/2011]',9.700
'[00:00:01.444 01/01/2011]',8.400
'[00:00:01.445 01/01/2011]',8.200
'[00:00:01.446 01/01/2011]',9.200
'[00:00:01.447 01/01/2011]',10.700
'[00:00:01.448 01/01/2011]',11.600
'[00:00:01.449 01/01/2011]',11.600
'[00:00:01.450 01/01/2011]',10.900
'[00:00:01.451 01/01/2011]',10.100
'[00:00:01.452 01/01/2011]',9.900
'[00:00:01.453 01/01/2011]',10.600
'[00:00:01.454 01/01/2011]',11.900
'[00:00:01.455 01/01/2011]',13.100
'[00:00:01.456 01/01/2011]',13.900
'[00:00:01.457 01/01/2011]',14.100
'[00:00:01.458 01/01/2011]',14.200
'[00:00:01.459 01/01/2011]',14.400
'[00:00:01.460 01/01/2011]',14.900
'[00:00:01.461 01/01/2011]',15.300
'[00:00:01.462 01/01/2011]',15.600
'[00:00:01.463 01/01/2011]',15.800
'[00:00:01.464 01/01/2011]',15.800
'[00:00:01.465 01/01/2011]',15.700
'[00:00:01.466 01/01/2011]',15.500
'[00:00:01.467 01/01/2011]',15.200
'[00:00:01.468 01/01/2011]',14.800
'[00:00:01.469 01/01/2011]',14.500
'[00:00:01.470 01/01/2011]',14.800
'[00:00:01.471 01/01/2011]',15.600
'[00:00:01.472 01/01/2011]',16.800
'[00:00:01.473 01/01/2011]',17.800
'[00:00:01.474 01/01/2011]',18.000
'[00:00:01.475 01/01/2011]',17.400
'[00:00:01.476 01/01/2011]',16.300
'[00:00:01.477 01/01/2011]',15.300
'[00:00:01.478 01/01/2011]',14.600
'[00:00:01.479 01/01/2011]',14.400
'[00:00:01.480 01/01/2011]',14.100
'[00:00:01.481 01/01/2011]',13.300
'[00:00:01.482 01/01/2011]',12.200
'[00:00:01.483 01/01/2011]',11.000
'[00:00:01.484 01/01/2011]',10.100
'[00:00:01.485 01/01/2011]',9.600
'[00:00:01.486 01/01/2011]',9.400
'[00:00:01.487 01/01/2011]',9.000
'[00:00:01.488 01/01/2011]',8.400
'[00:00:01.489 01/01/2011]',7.800
'[00:00:01.490 01/01/2011]',7.600
'[00:00:01.491 01/01/2011]',8.000
'[00:00:01.492 01/01/2011]',8.800
'[00:00:01.493 01/01/2011]',9.500
'[00:00:01.494 01/01/2011]',9.400
'[00:00:01.495 01/01/2011]',8.400
'[00:00:01.496 01/01/2011]',6.600
'[00:00:01.497 01/01/2011]',4.500
'[00:00:01.498 01/01/2011]',2.500
'[00:00:01.499 01/01/2011]',0.600
'[00:00:01.500 01/01/2011]',-1.200
'[00:00:01.501 01/01/2011]',-2.900
'[00:00:01.502 01/01/2011]',-4.200
'[00:00:01.503 01/01/2011]',-4.800
'[00:00:01.504 01/01/2011]',-4.700
'[00:00:01.505 01/01/2011]',-4.400
'[00:00:01.506 01/01/2011]',-4.600
'[00:00:01.507 01/01/2011]',-5.800
'[00:00:01.508 01/01/2011]',-7.900
'[00:00:01.509 01/01/2011]',-10.200
'[00:00:01.510 01/01/2011]',-11.800
'[00:00:01.511 01/01/2011]',-12.200
'[00:00:01.512 01/01/2011]',-11.400
'[00:00:01.513 01/01/2011]',-10.000
'[00:00:01.514 01/01/2011]',-8.900
'[00:00:01.515 01/01/2011]',-8.400
'[00:00:01.516 01/01/2011]',-8.500
'[00:00:01.517 01/01/2011]',-9.000
'[00:00:01.518 01/01/2011]',-9.300
'[00:00:01.519 01/01/2011]',-9.400
'[00:00:01.520 01/01/2011]',-9.200
'[00:00:01.521 01/01/2011]',-8.800
'[00:00:01.522 01/01/2011]',-8.500
'[00:00:01.523 01/01/2011]',-8.500
'[00:00:01.524 01/01/2011]',-8.700
'[00:00:01.525 01/01/2011]',-9.200
'[00:00:01.526 01/01/2011]',-9.700
'[00:00:01.527 01/01/2011]',-10.100
'[00:00:01.528 01/01/2011]',-10.100
'[00:00:01.529 01/01/2011]',-9.700
'[00:00:01.530 01/01/2011]',-9.200
'[00:00:01.531 01/01/2011]',-8.900
'[00:00:01.532 01/01/2011]',-9.000
'[00:00:01.533 01/01/2011]',-9.600
'[00:00:01.534 01/01/2011]',-10.100
'[00:00:01.535 01/01/2011]',-10.100
'[00:00:01.536 01/01/2011]',-9.500
'[00:00:01.537 01/01/2011]',-8.600
'[00:00:01.538 01/01/2011]',-7.900
'[00:00:01.539 01/01/2011]',-8.100
'[00:00:01.540 01/01/2011]',-9.100
'[00:00:01.541 01/01/2011]',-10.500
'[00:00:01.542 01/01/2011]',-11.500
'[00:00:01.543 01/01/2011]',-11.500
'[00:00:01.544 01/01/2011]',-10.400
'[00:00:01.545 01/01/2011]',-8.800
'[00:00:01.546 01/01/2011]',-7.400
'[00:00:01.547 01/01/2011]',-6.700
'[00:00:01.548 01/01/2011]',-6.800
'[00:00:01.549 01/01/2011]',-7.400
'[00:00:01.550 01/01/2011]',-7.800
'[00:00:01.551 01/01/2011]',-7.800
'[00:00:01.552 01/01/2011]',-7.800
'[00:00:01.553 01/01/2011]',-8.000
'[00:00:01.554 01/01/2011]',-8.600
'[00:00:01.555 01/01/2011]',-9.400
'[00:00:01.556 01/01/2011]',-9.900
'[00:00:01.557 01/01/2011]',-9.500
'[00:00:01.558 01/01/2011]',-8.300
'[00:00:01.559 01/01/2011]',-6.900
'[00:00:01.560 01/01/2011]',-6.000
'[00:00:01.561 01/01/2011]',-6.000
'[00:00:01.562 01/01/2011]',-6.700
'[00:00:01.563 01/01/2011]',-7.400
'[00:00:01.564 01/01/2011]',-7.500
'[00:00:01.565 01/01/2011]',-6.600
'[00:00:01.566 01/01/2011]',-5.100
'[00:00:01.567 01/01/2011]',-3.800
'[00:00:01.568 01/01/2011]',-3.200
'[00:00:01.569 01/01/2011]',-3.700
'[00:00:01.570 01/01/2011]',-4.800
'[00:00:01.571 01/01/2011]',-6.100
'[00:00:01.572 01/01/2011]',-7.400
'[00:00:01.573 01/01/2011]',-8.400
'[00:00:01.574 01/01/2011]',-9.300
'[00:00:01.575 01/01/2011]',-10.400
'[00:00:01.576 01/01/2011]',-11.500
'[00:00:01.577 01/01/2011]',-12.400
'[00:00:01.578 01/01/2011]',-12.600
'[00:00:01.579 01/01/2011]',-11.200
'[00:00:01.580 01/01/2011]',-7.700
'[00:00:01.581 01/01/2011]',-2.000
'[00:00:01.582 01/01/2011]',5.600
'[00:00:01.583 01/01/2011]',14.500
'[00:00:01.584 01/01/2011]',23.700
'[00:00:01.585 01/01/2011]',32.500
'[00:00:01.586 01/01/2011]',40.501
'[00:00:01.587 01/01/2011]',47.901
'[00:00:01.588 01/01/2011]',54.901
'[00:00:01.589 01/01/2011]',61.401
'[00:00:01.590 01/01/2011]',67.301
'[00:00:01.591 01/01/2011]',71.901
'[00:00:01.592 01/01/2011]',74.601
'[00:00:01.593 01/01/2011]',75.201
'[00:00:01.594 01/01/2011]',73.701
'[00:00:01.595 01/01/2011]',70.601
'[00:00:01.596 01/01/2011]',66.901
'[00:00:01.597 01/01/2011]',63.301
'[00:00:01.598 01/01/2011]',60.401
'[00:00:01.599 01/01/2011]',58.401
'[00:00:01.600 01/01/2011]',56.901
'[00:00:01.601 01/01/2011]',55.301
'[00:00:01.602 01/01/2011]',52.801
'[00:00:01.603 01/01/2011]',49.101
'[00:00:01.604 01/01/2011]',43.901
'[00:00:01.605 01/01/2011]',37.301
'[00:00:01.606 01/01/2011]',29.100
'[00:00:01.607 01/01/2011]',19.200
'[00:00:01.608 01/01/2011]',7.400
'[00:00:01.609 01/01/2011]',-5.500
'[00:00:01.610 01/01/2011]',-18.000
'[00:00:01.611 01/01/2011]',-28.200
'[00:00:01.612 01/01/2011]',-34.201
'[00:00:01.613 01/01/2011]',-35.201
'[00:00:01.614 01/01/2011]',-31.900
'[00:00:01.615 01/01/2011]',-25.800
'[00:00:01.616 01/01/2011]',-19.000
'[00:00:01.617 01/01/2011]',-12.900
'[00:00:01.618 01/01/2011]',-8.400
'[00:00:01.619 01/01/2011]',-5.400
'[00:00:01.620 01/01/2011]',-3.800
'[00:00:01.621 01/01/2011]',-3.000
'[00:00:01.622 01/01/2011]',-2.800
'[00:00:01.623 01/01/2011]',-3.000
'[00:00:01.624 01/01/2011]',-3.300
'[00:00:01.625 01/01/2011]',-3.600
'[00:00:01.626 01/01/2011]',-3.800
'[00:00:01.627 01/01/2011]',-3.900
'[00:00:01.628 01/01/2011]',-4.000
'[00:00:01.629 01/01/2011]',-4.100
'[00:00:01.630 01/01/2011]',-4.200
'[00:00:01.631 01/01/2011]',-4.000
'[00:00:01.632 01/01/2011]',-3.500
'[00:00:01.633 01/01/2011]',-3.000
'[00:00:01.634 01/01/2011]',-2.500
'[00:00:01.635 01/01/2011]',-2.400
'[00:00:01.636 01/01/2011]',-2.600
'[00:00:01.637 01/01/2011]',-3.200
'[00:00:01.638 01/01/2011]',-3.800
'[00:00:01.639 01/01/2011]',-4.600
'[00:00:01.640 01/01/2011]',-5.500
'[00:00:01.641 01/01/2011]',-6.300
'[00:00:01.642 01/01/2011]',-6.900
'[00:00:01.643 01/01/2011]',-7.000
'[00:00:01.644 01/01/2011]',-6.400
'[00:00:01.645 01/01/2011]',-5.400
'[00:00:01.646 01/01/2011]',-4.400
'[00:00:01.647 01/01/2011]',-3.900
'[00:00:01.648 01/01/2011]',-4.100
'[00:00:01.649 01/01/2011]',-4.900
'[00:00:01.650 01/01/2011]',-5.900
'[00:00:01.651 01/01/2011]',-6.500
'[00:00:01.652 01/01/2011]',-6.500
'[00:00:01.653 01/01/2011]',-6.000
'[00:00:01.654 01/01/2011]',-5.500
'[00:00:01.655 01/01/2011]',-5.300
'[00:00:01.656 01/01/2011]',-5.800
'[00:00:01.657 01/01/2011]',-7.000
'[00:00:01.658 01/01/2011]',-8.600
'[00:00:01.659 01/01/2011]',-10.100
'[00:00:01.660 01/01/2011]',-11.100
'[00:00:01.661 01/01/2011]',-11.400
'[00:00:01.662 01/01/2011]',-11.100
'[00:00:01.663 01/01/2011]',-10.700
'[00:00:01.664 01/01/2011]',-10.700
'[00:00:01.665 01/01/2011]',-11.200
'[00:00:01.666 01/01/2011]',-11.900
'[00:00:01.667 01/01/2011]',-12.400
'[00:00:01.668 01/01/2011]',-11.900
'[00:00:01.669 01/01/2011]',-10.200
'[00:00:01.670 01/01/2011]',-7.800
'[00:00:01.671 01/01/2011]',-5.600
'[00:00:01.672 01/01/2011]',-4.600
'[00:00:01.673 01/01/2011]',-5.300
'[00:00:01.674 01/01/2011]',-7.200
'[00:00:01.675 01/01/2011]',-9.100
'[00:00:01.676 01/01/2011]',-10.100
'[00:00:01.677 01/01/2011]',-9.700
'[00:00:01.678 01/01/2011]',-8.500
'[00:00:01.679 01/01/2011]',-7.500
'[00:00:01.680 01/01/2011]',-7.500
'[00:00:01.681 01/01/2011]',-8.700
'[00:00:01.682 01/01/2011]',-10.300
'[00:00:01.683 01/01/2011]',-11.200
'[00:00:01.684 01/01/2011]',-10.900
'[00:00:01.685 01/01/2011]',-9.700
'[00:00:01.686 01/01/2011]',-8.300
'[00:00:01.687 01/01/2011]',-7.800
'[00:00:01.688 01/01/2011]',-8.400
'[00:00:01.689 01/01/2011]',-9.600
'[00:00:01.690 01/01/2011]',-10.400
'[00:00:01.691 01/01/2011]',-10.200
'[00:00:01.692 01/01/2011]',-8.900
'[00:00:01.693 01/01/2011]',-7.500
'[00:00:01.694 01/01/2011]',-6.900
'[00:00:01.695 01/01/2011]',-7.700
'[00:00:01.696 01/01/2011]',-9.700
'[00:00:01.697 01/01/2011]',-11.900
'[00:00:01.698 01/01/2011]',-13.200
'[00:00:01.699 01/01/2011]',-13.200
'[00:00:01.700 01/01/2011]',-12.200
'[00:00:01.701 01/01/2011]',-11.000
'[00:00:01.702 01/01/2011]',-10.300
'[00:00:01.703 01/01/2011]',-10.600
'[00:00:01.704 01/01/2011]',-11.800
'[00:00:01.705 01/01/2011]',-13.300
'[00:00:01.706 01/01/2011]',-14.500
'[00:00:01.707 01/01/2011]',-14.700
'[00:00:01.708 01/01/2011]',-14.000
'[00:00:01.709 01/01/2011]',-12.500
'[00:00:01.710 01/01/2011]',-10.700
'[00:00:01.711 01/01/2011]',-9.300
'[00:00:01.712 01/01/2011]',-8.700
'[00:00:01.713 01/01/2011]',-9.000
'[00:00:01.714 01/01/2011]',-9.900
'[00:00:01.715 01/01/2011]',-10.800
'[00:00:01.716 01/01/2011]',-11.200
'[00:00:01.717 01/01/2011]',-10.800
'[00:00:01.718 01/01/2011]',-10.000
'[00:00:01.719 01/01/2011]',-9.400
'[00:00:01.720 01/01/2011]',-9.500
'[00:00:01.721 01/01/2011]',-10.200
'[00:00:01.722 01/01/2011]',-11.400
'[00:00:01.723 01/01/2011]',-12.400
'[00:00:01.724 01/01/2011]',-13.000
'[00:00:01.725 01/01/2011]',-12.900
'[00:00:01.726 01/01/2011]',-12.400
'[00:00:01.727 01/01/2011]',-11.700
'[00:00:01.728 01/01/2011]',-10.800
'[00:00:01.729 01/01/2011]',-9.800
'[00:00:01.730 01/01/2011]',-9.100
'[00:00:01.731 01/01/2011]',-8.700
'[00:00:01.732 01/01/2011]',-8.900
'[00:00:01.733 01/01/2011]',-9.500
'[00:00:01.734 01/01/2011]',-10.200
'[00:00:01.735 01/01/2011]',-10.500
'[00:00:01.736 01/01/2011]',-10.200
'[00:00:01.737 01/01/2011]',-9.700
'[00:00:01.738 01/01/2011]',-9.600
'[00:00:01.739 01/01/2011]',-10.000
'[00:00:01.740 01/01/2011]',-11.000
'[00:00:01.741 01/01/2011]',-11.800
'[00:00:01.742 01/01/2011]',-11.900
'[00:00:01.743 01/01/2011]',-11.200
'[00:00:01.744 01/01/2011]',-10.000
'[00:00:01.745 01/01/2011]',-8.900
'[00:00:01.746 01/01/2011]',-8.400
'[00:00:01.747 01/01/2011]',-8.600
'[00:00:01.748 01/01/2011]',-9.000
'[00:00:01.749 01/01/2011]',-9.100
'[00:00:01.750 01/01/2011]',-8.700
'[00:00:01.751 01/01/2011]',-8.100
'[00:00:01.752 01/01/2011]',-7.400
'[00:00:01.753 01/01/2011]',-6.900
'[00:00:01.754 01/01/2011]',-6.500
'[00:00:01.755 01/01/2011]',-5.800
'[00:00:01.756 01/01/2011]',-4.800
'[00:00:01.757 01/01/2011]',-4.000
'[00:00:01.758 01/01/2011]',-3.800
'[00:00:01.759 01/01/2011]',-4.300
'[00:00:01.760 01/01/2011]',-5.400
'[00:00:01.761 01/01/2011]',-6.400
'[00:00:01.762 01/01/2011]',-6.900
'[00:00:01.763 01/01/2011]',-6.700
'[00:00:01.764 01/01/2011]',-6.200
'[00:00:01.765 01/01/2011]',-6.100
'[00:00:01.766 01/01/2011]',-6.600
'[00:00:01.767 01/01/2011]',-7.200
'[00:00:01.768 01/01/2011]',-7.500
'[00:00:01.769 01/01/2011]',-6.900
'[00:00:01.770 01/01/2011]',-5.700
'[00:00:01.771 01/01/2011]',-4.300
'[00:00:01.772 01/01/2011]',-3.200
'[00:00:01.773 01/01/2011]',-2.800
'[00:00:01.774 01/01/2011]',-2.700
'[00:00:01.775 01/01/2011]',-2.800
'[00:00:01.776 01/01/2011]',-2.700
'[00:00:01.777 01/01/2011]',-2.800
'[00:00:01.778 01/01/2011]',-3.200
'[00:00:01.779 01/01/2011]',-3.900
'[00:00:01.780 01/01/2011]',-4.500
'[00:00:01.781 01/01/2011]',-4.600
'[00:00:01.782 01/01/2011]',-3.700
'[00:00:01.783 01/01/2011]',-2.100
'[00:00:01.784 01/01/2011]',-0.600
'[00:00:01.785 01/01/2011]',0.200
'[00:00:01.786 01/01/2011]',0.100
'[00:00:01.787 01/01/2011]',-0.600
'[00:00:01.788 01/01/2011]',-1.200
'[00:00:01.789 01/01/2011]',-1.200
'[00:00:01.790 01/01/2011]',-0.400
'[00:00:01.791 01/01/2011]',0.700
'[00:00:01.792 01/01/2011]',1.600
'[00:00:01.793 01/01/2011]',1.800
'[00:00:01.794 01/01/2011]',1.400
'[00:00:01.795 01/01/2011]',0.700
'[00:00:01.796 01/01/2011]',0.300
'[00:00:01.797 01/01/2011]',0.300
'[00:00:01.798 01/01/2011]',0.900
'[00:00:01.799 01/01/2011]',1.600
'[00:00:01.800 01/01/2011]',2.200
'[00:00:01.801 01/01/2011]',2.200
'[00:00:01.802 01/01/2011]',1.800
'[00:00:01.803 01/01/2011]',1.100
'[00:00:01.804 01/01/2011]',0.800
'[00:00:01.805 01/01/2011]',1.000
'[00:00:01.806 01/01/2011]',1.900
'[00:00:01.807 01/01/2011]',3.300
'[00:00:01.808 01/01/2011]',4.500
'[00:00:01.809 01/01/2011]',5.100
'[00:00:01.810 01/01/2011]',4.900
'[00:00:01.811 01/01/2011]',4.300
'[00:00:01.812 01/01/2011]',3.700
'[00:00:01.813 01/01/2011]',3.700
'[00:00:01.814 01/01/2011]',4.400
'[00:00:01.815 01/01/2011]',5.700
'[00:00:01.816 01/01/2011]',7.000
'[00:00:01.817 01/01/2011]',7.900
'[00:00:01.818 01/01/2011]',8.100
'[00:00:01.819 01/01/2011]',7.900
'[00:00:01.820 01/01/2011]',7.700
'[00:00:01.821 01/01/2011]',7.800
'[00:00:01.822 01/01/2011]',8.400
'[00:00:01.823 01/01/2011]',9.200
'[00:00:01.824 01/01/2011]',9.800
'[00:00:01.825 01/01/2011]',10.100
'[00:00:01.826 01/01/2011]',10.000
'[00:00:01.827 01/01/2011]',9.800
'[00:00:01.828 01/01/2011]',9.700
'[00:00:01.829 01/01/2011]',9.800
'[00:00:01.830 01/01/2011]',9.800
'[00:00:01.831 01/01/2011]',9.600
'[00:00:01.832 01/01/2011]',9.100
'[00:00:01.833 01/01/2011]',8.300
'[00:00:01.834 01/01/2011]',7.500
'[00:00:01.835 01/01/2011]',6.900
'[00:00:01.836 01/01/2011]',6.700
'[00:00:01.837 01/01/2011]',6.700
'[00:00:01.838 01/01/2011]',6.900
'[00:00:01.839 01/01/2011]',7.100
'[00:00:01.840 01/01/2011]',7.100
'[00:00:01.841 01/01/2011]',7.000
'[00:00:01.842 01/01/2011]',6.600
'[00:00:01.843 01/01/2011]',5.900
'[00:00:01.844 01/01/2011]',4.900
'[00:00:01.845 01/01/2011]',3.900
'[00:00:01.846 01/01/2011]',3.200
'[00:00:01.847 01/01/2011]',3.100
'[00:00:01.848 01/01/2011]',3.800
'[00:00:01.849 01/01/2011]',4.900
'[00:00:01.850 01/01/2011]',5.900
'[00:00:01.851 01/01/2011]',6.100
'[00:00:01.852 01/01/2011]',5.200
'[00:00:01.853 01/01/2011]',3.500
'[00:00:01.854 01/01/2011]',1.600
'[00:00:01.855 01/01/2011]',0.200
'[00:00:01.856 01/01/2011]',-0.300
'[00:00:01.857 01/01/2011]',0.200
'[00:00:01.858 01/01/2011]',0.900
'[00:00:01.859 01/01/2011]',1.200
'[00:00:01.860 01/01/2011]',0.400
'[00:00:01.861 01/01/2011]',-1.300
'[00:00:01.862 01/01/2011]',-3.300
'[00:00:01.863 01/01/2011]',-4.900
'[00:00:01.864 01/01/2011]',-5.300
'[00:00:01.865 01/01/2011]',-4.500
'[00:00:01.866 01/01/2011]',-3.000
'[00:00:01.867 01/01/2011]',-1.600
'[00:00:01.868 01/01/2011]',-0.800
'[00:00:01.869 01/01/2011]',-0.700
'[00:00:01.870 01/01/2011]',-0.900
'[00:00:01.871 01/01/2011]',-0.800
'[00:00:01.872 01/01/2011]',-0.400
'[00:00:01.873 01/01/2011]',0.100
'[00:00:01.874 01/01/2011]',0.000
'[00:00:01.875 01/01/2011]',-1.000
'[00:00:01.876 01/01/2011]',-2.700
'[00:00:01.877 01/01/2011]',-4.500
'[00:00:01.878 01/01/2011]',-5.700
'[00:00:01.879 01/01/2011]',-5.900
'[00:00:01.880 01/01/2011]',-5.400
'[00:00:01.881 01/01/2011]',-4.700
'[00:00:01.882 01/01/2011]',-4.400
'[00:00:01.883 01/01/2011]',-4.400
'[00:00:01.884 01/01/2011]',-4.600
'[00:00:01.885 01/01/2011]',-4.500
'[00:00:01.886 01/01/2011]',-4.100
'[00:00:01.887 01/01/2011]',-3.700
'[00:00:01.888 01/01/2011]',-3.700
'[00:00:01.889 01/01/2011]',-4.100
'[00:00:01.890 01/01/2011]',-4.800
'[00:00:01.891 01/01/2011]',-5.500
'[00:00:01.892 01/01/2011]',-5.900
'[00:00:01.893 01/01/2011]',-6.100
'[00:00:01.894 01/01/2011]',-6.300
'[00:00:01.895 01/01/2011]',-6.800
'[00:00:01.896 01/01/2011]',-7.700
'[00:00:01.897 01/01/2011]',-8.800
'[00:00:01.898 01/01/2011]',-9.600
'[00:00:01.899 01/01/2011]',-9.900
'[00:00:01.900 01/01/2011]',-9.600
'[00:00:01.901 01/01/2011]',-9.100
'[00:00:01.902 01/01/2011]',-8.500
'[00:00:01.903 01/01/2011]',-8.100
'[00:00:01.904 01/01/2011]',-7.900
'[00:00:01.905 01/01/2011]',-8.100
'[00:00:01.906 01/01/2011]',-8.600
'[00:00:01.907 01/01/2011]',-9.200
'[00:00:01.908 01/01/2011]',-9.800
'[00:00:01.909 01/01/2011]',-10.100
'[00:00:01.910 01/01/2011]',-9.900
'[00:00:01.911 01/01/2011]',-9.500
'[00:00:01.912 01/01/2011]',-9.200
'[00:00:01.913 01/01/2011]',-9.200
'[00:00:01.914 01/01/2011]',-9.600
'[00:00:01.915 01/01/2011]',-10.200
'[00:00:01.916 01/01/2011]',-10.800
'[00:00:01.917 01/01/2011]',-11.000
'[00:00:01.918 01/01/2011]',-11.000
'[00:00:01.919 01/01/2011]',-10.800
'[00:00:01.920 01/01/2011]',-10.800
'[00:00:01.921 01/01/2011]',-10.700
'[00:00:01.922 01/01/2011]',-10.400
'[00:00:01.923 01/01/2011]',-9.700
'[00:00:01.924 01/01/2011]',-8.700
'[00:00:01.925 01/01/2011]',-7.700
'[00:00:01.926 01/01/2011]',-7.400
'[00:00:01.927 01/01/2011]',-7.900
'[00:00:01.928 01/01/2011]',-8.900
'[00:00:01.929 01/01/2011]',-9.800
'[00:00:01.930 01/01/2011]',-10.300
'[00:00:01.931 01/01/2011]',-10.200
'[00:00:01.932 01/01/2011]',-9.600
'[00:00:01.933 01/01/2011]',-8.900
'[00:00:01.934 01/01/2011]',-8.200
'[00:00:01.935 01/01/2011]',-7.500
'[00:00:01.936 01/01/2011]',-6.600
'[00:00:01.937 01/01/2011]',-5.500
'[00:00:01.938 01/01/2011]',-4.600
'[00:00:01.939 01/01/2011]',-4.000
'[00:00:01.940 01/01/2011]',-3.900
'[00:00:01.941 01/01/2011]',-4.100
'[00:00:01.942 01/01/2011]',-4.200
'[00:00:01.943 01/01/2011]',-4.200
'[00:00:01.944 01/01/2011]',-4.200
'[00:00:01.945 01/01/2011]',-4.400
'[00:00:01.946 01/01/2011]',-4.900
'[00:00:01.947 01/01/2011]',-5.600
'[00:00:01.948 01/01/2011]',-6.200
'[00:00:01.949 01/01/2011]',-6.500
'[00:00:01.950 01/01/2011]',-6.500
'[00:00:01.951 01/01/2011]',-6.500
'[00:00:01.952 01/01/2011]',-6.800
'[00:00:01.953 01/01/2011]',-7.400
'[00:00:01.954 01/01/2011]',-8.400
'[00:00:01.955 01/01/2011]',-9.400
'[00:00:01.956 01/01/2011]',-10.500
'[00:00:01.957 01/01/2011]',-11.700
'[00:00:01.958 01/01/2011]',-13.300
'[00:00:01.959 01/01/2011]',-15.100
'[00:00:01.960 01/01/2011]',-16.800
'[00:00:01.961 01/01/2011]',-17.900
'[00:00:01.962 01/01/2011]',-18.300
'[00:00:01.963 01/01/2011]',-18.100
'[00:00:01.964 01/01/2011]',-18.000
'[00:00:01.965 01/01/2011]',-18.500
'[00:00:01.966 01/01/2011]',-19.700
'[00:00:01.967 01/01/2011]',-21.300
'[00:00:01.968 01/01/2011]',-22.600
'[00:00:01.969 01/01/2011]',-23.300
'[00:00:01.970 01/01/2011]',-23.600
'[00:00:01.971 01/01/2011]',-24.000
'[00:00:01.972 01/01/2011]',-25.000
'[00:00:01.973 01/01/2011]',-26.700
'[00:00:01.974 01/01/2011]',-28.500
'[00:00:01.975 01/01/2011]',-29.500
'[00:00:01.976 01/01/2011]',-29.200
'[00:00:01.977 01/01/2011]',-27.900
'[00:00:01.978 01/01/2011]',-26.000
'[00:00:01.979 01/01/2011]',-24.600
'[00:00:01.980 01/01/2011]',-23.900
'[00:00:01.981 01/01/2011]',-23.800
'[00:00:01.982 01/01/2011]',-23.900
'[00:00:01.983 01/01/2011]',-23.700
'[00:00:01.984 01/01/2011]',-23.000
'[00:00:01.985 01/01/2011]',-22.200
'[00:00:01.986 01/01/2011]',-21.600
'[00:00:01.987 01/01/2011]',-21.300
'[00:00:01.988 01/01/2011]',-21.100
'[00:00:01.989 01/01/2011]',-20.600
'[00:00:01.990 01/01/2011]',-19.600
'[00:00:01.991 01/01/2011]',-18.300
'[00:00:01.992 01/01/2011]',-17.300
'[00:00:01.993 01/01/2011]',-16.800
'[00:00:01.994 01/01/2011]',-17.000
'[00:00:01.995 01/01/2011]',-17.600
'[00:00:01.996 01/01/2011]',-18.000
'[00:00:01.997 01/01/2011]',-18.100
'[00:00:01.998 01/01/2011]',-17.900
'[00:00:01.999 01/01/2011]',-17.700
'[00:00:02.000 01/01/2011]',-17.600
'[00:00:02.001 01/01/2011]',-17.600
'[00:00:02.002 01/01/2011]',-17.400
'[00:00:02.003 01/01/2011]',-16.600
'[00:00:02.004 01/01/2011]',-15.500
'[00:00:02.005 01/01/2011]',-14.500
'[00:00:02.006 01/01/2011]',-14.300
'[00:00:02.007 01/01/2011]',-15.100
'[00:00:02.008 01/01/2011]',-16.500
'[00:00:02.009 01/01/2011]',-17.900
'[00:00:02.010 01/01/2011]',-18.700
'[00:00:02.011 01/01/2011]',-18.700
'[00:00:02.012 01/01/2011]',-18.100
'[00:00:02.013 01/01/2011]',-17.700
'[00:00:02.014 01/01/2011]',-17.800
'[00:00:02.015 01/01/2011]',-18.700
'[00:00:02.016 01/01/2011]',-20.100
'[00:00:02.017 01/01/2011]',-21.600
'[00:00:02.018 01/01/2011]',-22.500
'[00:00:02.019 01/01/2011]',-22.400
'[00:00:02.020 01/01/2011]',-21.200
'[00:00:02.021 01/01/2011]',-19.200
'[00:00:02.022 01/01/2011]',-17.200
'[00:00:02.023 01/01/2011]',-16.000
'[00:00:02.024 01/01/2011]',-16.100
'[00:00:02.025 01/01/2011]',-17.500
'[00:00:02.026 01/01/2011]',-19.200
'[00:00:02.027 01/01/2011]',-20.200
'[00:00:02.028 01/01/2011]',-19.800
'[00:00:02.029 01/01/2011]',-18.400
'[00:00:02.030 01/01/2011]',-16.800
'[00:00:02.031 01/01/2011]',-16.000
'[00:00:02.032 01/01/2011]',-16.400
'[00:00:02.033 01/01/2011]',-17.700
'[00:00:02.034 01/01/2011]',-19.100
'[00:00:02.035 01/01/2011]',-19.900
'[00:00:02.036 01/01/2011]',-20.200
'[00:00:02.037 01/01/2011]',-20.300
'[00:00:02.038 01/01/2011]',-20.600
'[00:00:02.039 01/01/2011]',-21.300
'[00:00:02.040 01/01/2011]',-21.900
'[00:00:02.041 01/01/2011]',-21.700
'[00:00:02.042 01/01/2011]',-20.800
'[00:00:02.043 01/01/2011]',-19.400
'[00:00:02.044 01/01/2011]',-18.400
'[00:00:02.045 01/01/2011]',-18.300
'[00:00:02.046 01/01/2011]',-19.100
'[00:00:02.047 01/01/2011]',-20.100
'[00:00:02.048 01/01/2011]',-20.700
'[00:00:02.049 01/01/2011]',-20.600
'[00:00:02.050 01/01/2011]',-20.000
'[00:00:02.051 01/01/2011]',-19.500
'[00:00:02.052 01/01/2011]',-19.600
'[00:00:02.053 01/01/2011]',-20.600
'[00:00:02.054 01/01/2011]',-22.400
'[00:00:02.055 01/01/2011]',-24.300
'[00:00:02.056 01/01/2011]',-25.900
'[00:00:02.057 01/01/2011]',-26.400
'[00:00:02.058 01/01/2011]',-25.100
'[00:00:02.059 01/01/2011]',-21.800
'[00:00:02.060 01/01/2011]',-16.300
'[00:00:02.061 01/01/2011]',-9.000
'[00:00:02.062 01/01/2011]',-0.600
'[00:00:02.063 01/01/2011]',8.400
'[00:00:02.064 01/01/2011]',17.300
'[00:00:02.065 01/01/2011]',26.200
'[00:00:02.066 01/01/2011]',34.701
'[00:00:02.067 01/01/2011]',42.601
'[00:00:02.068 01/01/2011]',49.401
'[00:00:02.069 01/01/2011]',54.601
'[00:00:02.070 01/01/2011]',58.201
'[00:00:02.071 01/01/2011]',60.301
'[00:00:02.072 01/01/2011]',61.301
'[00:00:02.073 01/01/2011]',61.101
'[00:00:02.074 01/01/2011]',59.701
'[00:00:02.075 01/01/2011]',57.101
'[00:00:02.076 01/01/2011]',53.601
'[00:00:02.077 01/01/2011]',50.301
'[00:00:02.078 01/01/2011]',48.201
'[00:00:02.079 01/01/2011]',47.601
'[00:00:02.080 01/01/2011]',47.901
'[00:00:02.081 01/01/2011]',47.701
'[00:00:02.082 01/01/2011]',45.401
'[00:00:02.083 01/01/2011]',39.901
'[00:00:02.084 01/01/2011]',31.500
'[00:00:02.085 01/01/2011]',20.900
'[00:00:02.086 01/01/2011]',9.100
'[00:00:02.087 01/01/2011]',-3.200
'[00:00:02.088 01/01/2011]',-15.300
'[00:00:02.089 01/01/2011]',-26.500
'[00:00:02.090 01/01/2011]',-35.501
'[00:00:02.091 01/01/2011]',-41.001
'[00:00:02.092 01/01/2011]',-42.101
'[00:00:02.093 01/01/2011]',-39.101
'[00:00:02.094 01/01/2011]',-33.401
'[00:00:02.095 01/01/2011]',-26.600
'[00:00:02.096 01/01/2011]',-20.400
'[00:00:02.097 01/01/2011]',-15.400
'[00:00:02.098 01/01/2011]',-11.600
'[00:00:02.099 01/01/2011]',-8.700
'[00:00:02.100 01/01/2011]',-6.600
'[00:00:02.101 01/01/2011]',-5.700
'[00:00:02.102 01/01/2011]',-6.200
'[00:00:02.103 01/01/2011]',-7.800
'[00:00:02.104 01/01/2011]',-9.900
'[00:00:02.105 01/01/2011]',-11.500
'[00:00:02.106 01/01/2011]',-11.900
'[00:00:02.107 01/01/2011]',-10.900
'[00:00:02.108 01/01/2011]',-9.100
'[00:00:02.109 01/01/2011]',-7.200
'[00:00:02.110 01/01/2011]',-6.000
'[00:00:02.111 01/01/2011]',-5.700
'[00:00:02.112 01/01/2011]',-6.300
'[00:00:02.113 01/01/2011]',-7.300
'[00:00:02.114 01/01/2011]',-8.200
'[00:00:02.115 01/01/2011]',-8.700
'[00:00:02.116 01/01/2011]',-8.700
'[00:00:02.117 01/01/2011]',-8.100
'[00:00:02.118 01/01/2011]',-7.200
'[00:00:02.119 01/01/2011]',-6.300
'[00:00:02.120 01/01/2011]',-5.800
'[00:00:02.121 01/01/2011]',-5.800
'[00:00:02.122 01/01/2011]',-6.500
'[00:00:02.123 01/01/2011]',-7.500
'[00:00:02.124 01/01/2011]',-8.300
'[00:00:02.125 01/01/2011]',-8.700
'[00:00:02.126 01/01/2011]',-8.500
'[00:00:02.127 01/01/2011]',-7.900
'[00:00:02.128 01/01/2011]',-7.200
'[00:00:02.129 01/01/2011]',-6.800
'[00:00:02.130 01/01/2011]',-6.700
'[00:00:02.131 01/01/2011]',-6.700
'[00:00:02.132 01/01/2011]',-6.600
'[00:00:02.133 01/01/2011]',-6.100
'[00:00:02.134 01/01/2011]',-5.400
'[00:00:02.135 01/01/2011]',-4.600
'[00:00:02.136 01/01/2011]',-3.900
'[00:00:02.137 01/01/2011]',-3.400
'[00:00:02.138 01/01/2011]',-3.300
'[00:00:02.139 01/01/2011]',-3.400
'[00:00:02.140 01/01/2011]',-3.500
'[00:00:02.141 01/01/2011]',-3.700
'[00:00:02.142 01/01/2011]',-3.700
'[00:00:02.143 01/01/2011]',-3.600
'[00:00:02.144 01/01/2011]',-3.300
'[00:00:02.145 01/01/2011]',-2.600
'[00:00:02.146 01/01/2011]',-1.600
'[00:00:02.147 01/01/2011]',-0.300
'[00:00:02.148 01/01/2011]',0.900
'[00:00:02.149 01/01/2011]',1.900
'[00:00:02.150 01/01/2011]',2.200
'[00:00:02.151 01/01/2011]',1.800
'[00:00:02.152 01/01/2011]',0.700
'[00:00:02.153 01/01/2011]',-0.600
'[00:00:02.154 01/01/2011]',-1.400
'[00:00:02.155 01/01/2011]',-1.300
'[00:00:02.156 01/01/2011]',-0.100
'[00:00:02.157 01/01/2011]',1.600
'[00:00:02.158 01/01/2011]',3.100
'[00:00:02.159 01/01/2011]',3.600
'[00:00:02.160 01/01/2011]',2.900
'[00:00:02.161 01/01/2011]',1.300
'[00:00:02.162 01/01/2011]',-0.300
'[00:00:02.163 01/01/2011]',-1.200
'[00:00:02.164 01/01/2011]',-1.100
'[00:00:02.165 01/01/2011]',-0.400
'[00:00:02.166 01/01/2011]',0.300
'[00:00:02.167 01/01/2011]',0.800
'[00:00:02.168 01/01/2011]',0.800
'[00:00:02.169 01/01/2011]',0.700
'[00:00:02.170 01/01/2011]',0.800
'[00:00:02.171 01/01/2011]',1.100
'[00:00:02.172 01/01/2011]',1.600
'[00:00:02.173 01/01/2011]',1.800
'[00:00:02.174 01/01/2011]',1.600
'[00:00:02.175 01/01/2011]',1.000
'[00:00:02.176 01/01/2011]',0.200
'[00:00:02.177 01/01/2011]',-0.300
'[00:00:02.178 01/01/2011]',-0.300
'[00:00:02.179 01/01/2011]',0.100
'[00:00:02.180 01/01/2011]',0.800
'[00:00:02.181 01/01/2011]',1.300
'[00:00:02.182 01/01/2011]',1.300
'[00:00:02.183 01/01/2011]',0.800
'[00:00:02.184 01/01/2011]',-0.200
'[00:00:02.185 01/01/2011]',-1.300
'[00:00:02.186 01/01/2011]',-1.900
'[00:00:02.187 01/01/2011]',-2.000
'[00:00:02.188 01/01/2011]',-1.400
'[00:00:02.189 01/01/2011]',-0.400
'[00:00:02.190 01/01/2011]',0.600
'[00:00:02.191 01/01/2011]',1.300
'[00:00:02.192 01/01/2011]',1.400
'[00:00:02.193 01/01/2011]',0.900
'[00:00:02.194 01/01/2011]',0.100
'[00:00:02.195 01/01/2011]',-0.800
'[00:00:02.196 01/01/2011]',-1.500
'[00:00:02.197 01/01/2011]',-1.700
'[00:00:02.198 01/01/2011]',-1.300
'[00:00:02.199 01/01/2011]',-0.700
'[00:00:02.200 01/01/2011]',0.000
'[00:00:02.201 01/01/2011]',0.500
'[00:00:02.202 01/01/2011]',0.600
'[00:00:02.203 01/01/2011]',0.400
'[00:00:02.204 01/01/2011]',0.100
'[00:00:02.205 01/01/2011]',0.000
'[00:00:02.206 01/01/2011]',0.300
'[00:00:02.207 01/01/2011]',1.000
'[00:00:02.208 01/01/2011]',1.900
'[00:00:02.209 01/01/2011]',2.500
'[00:00:02.210 01/01/2011]',2.600
'[00:00:02.211 01/01/2011]',2.100
'[00:00:02.212 01/01/2011]',1.100
'[00:00:02.213 01/01/2011]',0.200
'[00:00:02.214 01/01/2011]',-0.400
'[00:00:02.215 01/01/2011]',-0.500
'[00:00:02.216 01/01/2011]',-0.100
'[00:00:02.217 01/01/2011]',0.400
'[00:00:02.218 01/01/2011]',0.700
'[00:00:02.219 01/01/2011]',0.600
'[00:00:02.220 01/01/2011]',0.300
'[00:00:02.221 01/01/2011]',-0.200
'[00:00:02.222 01/01/2011]',-0.500
'[00:00:02.223 01/01/2011]',-0.600
'[00:00:02.224 01/01/2011]',-0.600
'[00:00:02.225 01/01/2011]',-0.500
'[00:00:02.226 01/01/2011]',-0.300
'[00:00:02.227 01/01/2011]',0.000
'[00:00:02.228 01/01/2011]',0.200
'[00:00:02.229 01/01/2011]',0.300
'[00:00:02.230 01/01/2011]',0.200
'[00:00:02.231 01/01/2011]',-0.300
'[00:00:02.232 01/01/2011]',-0.700
'[00:00:02.233 01/01/2011]',-0.700
'[00:00:02.234 01/01/2011]',-0.100
'[00:00:02.235 01/01/2011]',1.100
'[00:00:02.236 01/01/2011]',2.500
'[00:00:02.237 01/01/2011]',3.500
'[00:00:02.238 01/01/2011]',3.800
'[00:00:02.239 01/01/2011]',3.300
'[00:00:02.240 01/01/2011]',2.300
'[00:00:02.241 01/01/2011]',1.400
'[00:00:02.242 01/01/2011]',0.700
'[00:00:02.243 01/01/2011]',0.200
'[00:00:02.244 01/01/2011]',-0.200
'[00:00:02.245 01/01/2011]',-0.700
'[00:00:02.246 01/01/2011]',-1.100
'[00:00:02.247 01/01/2011]',-1.000
'[00:00:02.248 01/01/2011]',0.000
'[00:00:02.249 01/01/2011]',1.800
'[00:00:02.250 01/01/2011]',3.700
'[00:00:02.251 01/01/2011]',5.000
'[00:00:02.252 01/01/2011]',5.300
'[00:00:02.253 01/01/2011]',4.500
'[00:00:02.254 01/01/2011]',3.100
'[00:00:02.255 01/01/2011]',1.900
'[00:00:02.256 01/01/2011]',1.200
'[00:00:02.257 01/01/2011]',1.000
'[00:00:02.258 01/01/2011]',0.900
'[00:00:02.259 01/01/2011]',0.500
'[00:00:02.260 01/01/2011]',-0.200
'[00:00:02.261 01/01/2011]',-1.000
'[00:00:02.262 01/01/2011]',-1.400
'[00:00:02.263 01/01/2011]',-1.300
'[00:00:02.264 01/01/2011]',-0.700
'[00:00:02.265 01/01/2011]',0.100
'[00:00:02.266 01/01/2011]',0.800
'[00:00:02.267 01/01/2011]',1.200
'[00:00:02.268 01/01/2011]',1.400
'[00:00:02.269 01/01/2011]',1.700
'[00:00:02.270 01/01/2011]',2.000
'[00:00:02.271 01/01/2011]',2.400
'[00:00:02.272 01/01/2011]',2.600
'[00:00:02.273 01/01/2011]',2.200
'[00:00:02.274 01/01/2011]',1.400
'[00:00:02.275 01/01/2011]',0.300
'[00:00:02.276 01/01/2011]',-0.700
'[00:00:02.277 01/01/2011]',-1.200
'[00:00:02.278 01/01/2011]',-1.200
'[00:00:02.279 01/01/2011]',-0.800
'[00:00:02.280 01/01/2011]',-0.600
'[00:00:02.281 01/01/2011]',-0.600
'[00:00:02.282 01/01/2011]',-0.900
'[00:00:02.283 01/01/2011]',-1.200
'[00:00:02.284 01/01/2011]',-1.100
'[00:00:02.285 01/01/2011]',-0.700
'[00:00:02.286 01/01/2011]',-0.100
'[00:00:02.287 01/01/2011]',0.300
'[00:00:02.288 01/01/2011]',0.200
'[00:00:02.289 01/01/2011]',-0.400
'[00:00:02.290 01/01/2011]',-1.100
'[00:00:02.291 01/01/2011]',-1.500
'[00:00:02.292 01/01/2011]',-1.600
'[00:00:02.293 01/01/2011]',-1.500
'[00:00:02.294 01/01/2011]',-1.600
'[00:00:02.295 01/01/2011]',-2.200
'[00:00:02.296 01/01/2011]',-3.300
'[00:00:02.297 01/01/2011]',-4.400
'[00:00:02.298 01/01/2011]',-5.300
'[00:00:02.299 01/01/2011]',-5.400
'[00:00:02.300 01/01/2011]',-4.900
'[00:00:02.301 01/01/2011]',-4.100
'[00:00:02.302 01/01/2011]',-3.500
'[00:00:02.303 01/01/2011]',-3.400
'[00:00:02.304 01/01/2011]',-3.700
'[00:00:02.305 01/01/2011]',-4.300
'[00:00:02.306 01/01/2011]',-4.800
'[00:00:02.307 01/01/2011]',-5.000
'[00:00:02.308 01/01/2011]',-4.800
'[00:00:02.309 01/01/2011]',-4.400
'[00:00:02.310 01/01/2011]',-4.000
'[00:00:02.311 01/01/2011]',-3.800
'[00:00:02.312 01/01/2011]',-3.800
'[00:00:02.313 01/01/2011]',-4.000
'[00:00:02.314 01/01/2011]',-4.400
'[00:00:02.315 01/01/2011]',-4.900
'[00:00:02.316 01/01/2011]',-5.600
'[00:00:02.317 01/01/2011]',-6.400
'[00:00:02.318 01/01/2011]',-7.600
'[00:00:02.319 01/01/2011]',-8.900
'[00:00:02.320 01/01/2011]',-10.300
'[00:00:02.321 01/01/2011]',-11.400
'[00:00:02.322 01/01/2011]',-11.800
'[00:00:02.323 01/01/2011]',-11.400
'[00:00:02.324 01/01/2011]',-10.400
'[00:00:02.325 01/01/2011]',-9.100
'[00:00:02.326 01/01/2011]',-8.100
'[00:00:02.327 01/01/2011]',-7.800
'[00:00:02.328 01/01/2011]',-8.300
'[00:00:02.329 01/01/2011]',-9.500
'[00:00:02.330 01/01/2011]',-10.800
'[00:00:02.331 01/01/2011]',-11.600
'[00:00:02.332 01/01/2011]',-11.800
'[00:00:02.333 01/01/2011]',-11.500
'[00:00:02.334 01/01/2011]',-11.200
'[00:00:02.335 01/01/2011]',-11.500
'[00:00:02.336 01/01/2011]',-12.800
'[00:00:02.337 01/01/2011]',-14.800
'[00:00:02.338 01/01/2011]',-16.600
'[00:00:02.339 01/01/2011]',-17.500
'[00:00:02.340 01/01/2011]',-17.100
'[00:00:02.341 01/01/2011]',-15.800
'[00:00:02.342 01/01/2011]',-14.500
'[00:00:02.343 01/01/2011]',-14.000
'[00:00:02.344 01/01/2011]',-14.700
'[00:00:02.345 01/01/2011]',-16.100
'[00:00:02.346 01/01/2011]',-17.700
'[00:00:02.347 01/01/2011]',-18.500
'[00:00:02.348 01/01/2011]',-18.500
'[00:00:02.349 01/01/2011]',-17.900
'[00:00:02.350 01/01/2011]',-17.200
'[00:00:02.351 01/01/2011]',-16.800
'[00:00:02.352 01/01/2011]',-16.600
'[00:00:02.353 01/01/2011]',-16.500
'[00:00:02.354 01/01/2011]',-16.500
'[00:00:02.355 01/01/2011]',-16.600
'[00:00:02.356 01/01/2011]',-16.900
'[00:00:02.357 01/01/2011]',-17.500
'[00:00:02.358 01/01/2011]',-18.100
'[00:00:02.359 01/01/2011]',-18.400
'[00:00:02.360 01/01/2011]',-18.400
'[00:00:02.361 01/01/2011]',-18.100
'[00:00:02.362 01/01/2011]',-17.700
'[00:00:02.363 01/01/2011]',-17.500
'[00:00:02.364 01/01/2011]',-17.400
'[00:00:02.365 01/01/2011]',-17.200
'[00:00:02.366 01/01/2011]',-17.000
'[00:00:02.367 01/01/2011]',-16.700
'[00:00:02.368 01/01/2011]',-16.500
'[00:00:02.369 01/01/2011]',-16.600
'[00:00:02.370 01/01/2011]',-17.100
'[00:00:02.371 01/01/2011]',-17.700
'[00:00:02.372 01/01/2011]',-18.200
'[00:00:02.373 01/01/2011]',-18.400
'[00:00:02.374 01/01/2011]',-18.300
'[00:00:02.375 01/01/2011]',-18.100
'[00:00:02.376 01/01/2011]',-17.800
'[00:00:02.377 01/01/2011]',-17.600
'[00:00:02.378 01/01/2011]',-17.600
'[00:00:02.379 01/01/2011]',-18.000
'[00:00:02.380 01/01/2011]',-18.600
'[00:00:02.381 01/01/2011]',-19.300
'[00:00:02.382 01/01/2011]',-19.900
'[00:00:02.383 01/01/2011]',-20.100
'[00:00:02.384 01/01/2011]',-19.700
'[00:00:02.385 01/01/2011]',-18.600
'[00:00:02.386 01/01/2011]',-17.300
'[00:00:02.387 01/01/2011]',-16.400
'[00:00:02.388 01/01/2011]',-16.400
'[00:00:02.389 01/01/2011]',-17.400
'[00:00:02.390 01/01/2011]',-19.200
'[00:00:02.391 01/01/2011]',-20.700
'[00:00:02.392 01/01/2011]',-21.300
'[00:00:02.393 01/01/2011]',-20.600
'[00:00:02.394 01/01/2011]',-19.000
'[00:00:02.395 01/01/2011]',-17.400
'[00:00:02.396 01/01/2011]',-16.800
'[00:00:02.397 01/01/2011]',-17.600
'[00:00:02.398 01/01/2011]',-19.400
'[00:00:02.399 01/01/2011]',-21.000
'[00:00:02.400 01/01/2011]',-21.700
'[00:00:02.401 01/01/2011]',-21.100
'[00:00:02.402 01/01/2011]',-19.900
'[00:00:02.403 01/01/2011]',-19.200
'[00:00:02.404 01/01/2011]',-19.600
'[00:00:02.405 01/01/2011]',-20.800
'[00:00:02.406 01/01/2011]',-21.800
'[00:00:02.407 01/01/2011]',-21.800
'[00:00:02.408 01/01/2011]',-20.500
'[00:00:02.409 01/01/2011]',-18.500
'[00:00:02.410 01/01/2011]',-16.800
'[00:00:02.411 01/01/2011]',-16.200
'[00:00:02.412 01/01/2011]',-16.300
'[00:00:02.413 01/01/2011]',-16.200
'[00:00:02.414 01/01/2011]',-15.100
'[00:00:02.415 01/01/2011]',-12.800
'[00:00:02.416 01/01/2011]',-10.100
'[00:00:02.417 01/01/2011]',-8.200
'[00:00:02.418 01/01/2011]',-7.900
'[00:00:02.419 01/01/2011]',-9.000
'[00:00:02.420 01/01/2011]',-10.900
'[00:00:02.421 01/01/2011]',-12.200
'[00:00:02.422 01/01/2011]',-12.300
'[00:00:02.423 01/01/2011]',-11.200
'[00:00:02.424 01/01/2011]',-9.400
'[00:00:02.425 01/01/2011]',-7.700
'[00:00:02.426 01/01/2011]',-6.600
'[00:00:02.427 01/01/2011]',-6.200
'[00:00:02.428 01/01/2011]',-6.300
'[00:00:02.429 01/01/2011]',-6.700
'[00:00:02.430 01/01/2011]',-7.000
'[00:00:02.431 01/01/2011]',-7.200
'[00:00:02.432 01/01/2011]',-7.200
'[00:00:02.433 01/01/2011]',-7.300
'[00:00:02.434 01/01/2011]',-7.700
'[00:00:02.435 01/01/2011]',-8.600
'[00:00:02.436 01/01/2011]',-9.800
'[00:00:02.437 01/01/2011]',-10.800
'[00:00:02.438 01/01/2011]',-11.000
'[00:00:02.439 01/01/2011]',-10.000
'[00:00:02.440 01/01/2011]',-8.300
'[00:00:02.441 01/01/2011]',-6.600
'[00:00:02.442 01/01/2011]',-5.800
'[00:00:02.443 01/01/2011]',-6.100
'[00:00:02.444 01/01/2011]',-7.200
'[00:00:02.445 01/01/2011]',-8.200
'[00:00:02.446 01/01/2011]',-8.700
'[00:00:02.447 01/01/2011]',-8.800
'[00:00:02.448 01/01/2011]',-8.900
'[00:00:02.449 01/01/2011]',-9.900
'[00:00:02.450 01/01/2011]',-11.700
'[00:00:02.451 01/01/2011]',-13.900
'[00:00:02.452 01/01/2011]',-15.700
'[00:00:02.453 01/01/2011]',-16.900
'[00:00:02.454 01/01/2011]',-17.600
'[00:00:02.455 01/01/2011]',-18.400
'[00:00:02.456 01/01/2011]',-19.700
'[00:00:02.457 01/01/2011]',-21.400
'[00:00:02.458 01/01/2011]',-22.800
'[00:00:02.459 01/01/2011]',-23.300
'[00:00:02.460 01/01/2011]',-22.800
'[00:00:02.461 01/01/2011]',-21.900
'[00:00:02.462 01/01/2011]',-21.700
'[00:00:02.463 01/01/2011]',-22.500
'[00:00:02.464 01/01/2011]',-24.300
'[00:00:02.465 01/01/2011]',-26.300
'[00:00:02.466 01/01/2011]',-27.600
'[00:00:02.467 01/01/2011]',-27.500
'[00:00:02.468 01/01/2011]',-26.300
'[00:00:02.469 01/01/2011]',-24.600
'[00:00:02.470 01/01/2011]',-23.300
'[00:00:02.471 01/01/2011]',-22.900
'[00:00:02.472 01/01/2011]',-23.500
'[00:00:02.473 01/01/2011]',-24.700
'[00:00:02.474 01/01/2011]',-25.600
'[00:00:02.475 01/01/2011]',-26.000
'[00:00:02.476 01/01/2011]',-25.600
'[00:00:02.477 01/01/2011]',-24.800
'[00:00:02.478 01/01/2011]',-23.900
'[00:00:02.479 01/01/2011]',-23.400
'[00:00:02.480 01/01/2011]',-23.400
'[00:00:02.481 01/01/2011]',-23.900
'[00:00:02.482 01/01/2011]',-24.600
'[00:00:02.483 01/01/2011]',-25.100
'[00:00:02.484 01/01/2011]',-25.200
'[00:00:02.485 01/01/2011]',-24.700
'[00:00:02.486 01/01/2011]',-23.900
'[00:00:02.487 01/01/2011]',-22.800
'[00:00:02.488 01/01/2011]',-21.800
'[00:00:02.489 01/01/2011]',-21.400
'[00:00:02.490 01/01/2011]',-21.800
'[00:00:02.491 01/01/2011]',-22.800
'[00:00:02.492 01/01/2011]',-24.000
'[00:00:02.493 01/01/2011]',-24.800
'[00:00:02.494 01/01/2011]',-24.900
'[00:00:02.495 01/01/2011]',-24.500
'[00:00:02.496 01/01/2011]',-23.800
'[00:00:02.497 01/01/2011]',-23.400
'[00:00:02.498 01/01/2011]',-23.500
'[00:00:02.499 01/01/2011]',-23.900
'[00:00:02.500 01/01/2011]',-24.200
'[00:00:02.501 01/01/2011]',-23.900
'[00:00:02.502 01/01/2011]',-23.000
'[00:00:02.503 01/01/2011]',-22.000
'[00:00:02.504 01/01/2011]',-21.200
'[00:00:02.505 01/01/2011]',-20.900
'[00:00:02.506 01/01/2011]',-21.000
'[00:00:02.507 01/01/2011]',-21.200
'[00:00:02.508 01/01/2011]',-21.200
'[00:00:02.509 01/01/2011]',-21.100
'[00:00:02.510 01/01/2011]',-21.000
'[00:00:02.511 01/01/2011]',-21.100
'[00:00:02.512 01/01/2011]',-21.400
'[00:00:02.513 01/01/2011]',-21.600
'[00:00:02.514 01/01/2011]',-21.600
'[00:00:02.515 01/01/2011]',-21.300
'[00:00:02.516 01/01/2011]',-21.100
'[00:00:02.517 01/01/2011]',-21.000
'[00:00:02.518 01/01/2011]',-21.500
'[00:00:02.519 01/01/2011]',-22.200
'[00:00:02.520 01/01/2011]',-23.100
'[00:00:02.521 01/01/2011]',-23.800
'[00:00:02.522 01/01/2011]',-24.100
'[00:00:02.523 01/01/2011]',-24.200
'[00:00:02.524 01/01/2011]',-24.000
'[00:00:02.525 01/01/2011]',-24.000
'[00:00:02.526 01/01/2011]',-24.100
'[00:00:02.527 01/01/2011]',-24.500
'[00:00:02.528 01/01/2011]',-25.200
'[00:00:02.529 01/01/2011]',-26.500
'[00:00:02.530 01/01/2011]',-28.200
'[00:00:02.531 01/01/2011]',-30.000
'[00:00:02.532 01/01/2011]',-31.400
'[00:00:02.533 01/01/2011]',-31.600
'[00:00:02.534 01/01/2011]',-30.000
'[00:00:02.535 01/01/2011]',-26.400
'[00:00:02.536 01/01/2011]',-21.100
'[00:00:02.537 01/01/2011]',-14.700
'[00:00:02.538 01/01/2011]',-7.600
'[00:00:02.539 01/01/2011]',-0.200
'[00:00:02.540 01/01/2011]',7.800
'[00:00:02.541 01/01/2011]',16.600
'[00:00:02.542 01/01/2011]',26.000
'[00:00:02.543 01/01/2011]',35.301
'[00:00:02.544 01/01/2011]',43.501
'[00:00:02.545 01/01/2011]',49.701
'[00:00:02.546 01/01/2011]',53.601
'[00:00:02.547 01/01/2011]',55.501
'[00:00:02.548 01/01/2011]',56.001
'[00:00:02.549 01/01/2011]',55.801
'[00:00:02.550 01/01/2011]',55.001
'[00:00:02.551 01/01/2011]',53.301
'[00:00:02.552 01/01/2011]',51.001
'[00:00:02.553 01/01/2011]',48.201
'[00:00:02.554 01/01/2011]',45.701
'[00:00:02.555 01/01/2011]',44.101
'[00:00:02.556 01/01/2011]',43.301
'[00:00:02.557 01/01/2011]',42.301
'[00:00:02.558 01/01/2011]',40.001
'[00:00:02.559 01/01/2011]',35.501
'[00:00:02.560 01/01/2011]',28.400
'[00:00:02.561 01/01/2011]',19.000
'[00:00:02.562 01/01/2011]',8.000
'[00:00:02.563 01/01/2011]',-3.900
'[00:00:02.564 01/01/2011]',-15.700
'[00:00:02.565 01/01/2011]',-26.700
'[00:00:02.566 01/01/2011]',-35.701
'[00:00:02.567 01/01/2011]',-41.601
'[00:00:02.568 01/01/2011]',-43.901
'[00:00:02.569 01/01/2011]',-42.601
'[00:00:02.570 01/01/2011]',-38.701
'[00:00:02.571 01/01/2011]',-33.701
'[00:00:02.572 01/01/2011]',-28.600
'[00:00:02.573 01/01/2011]',-24.500
'[00:00:02.574 01/01/2011]',-21.300
'[00:00:02.575 01/01/2011]',-19.000
'[00:00:02.576 01/01/2011]',-17.200
'[00:00:02.577 01/01/2011]',-15.800
'[00:00:02.578 01/01/2011]',-14.900
'[00:00:02.579 01/01/2011]',-14.400
'[00:00:02.580 01/01/2011]',-14.600
'[00:00:02.581 01/01/2011]',-15.200
'[00:00:02.582 01/01/2011]',-16.100
'[00:00:02.583 01/01/2011]',-17.000
'[00:00:02.584 01/01/2011]',-17.200
'[00:00:02.585 01/01/2011]',-16.500
'[00:00:02.586 01/01/2011]',-15.000
'[00:00:02.587 01/01/2011]',-13.300
'[00:00:02.588 01/01/2011]',-12.200
'[00:00:02.589 01/01/2011]',-12.100
'[00:00:02.590 01/01/2011]',-13.100
'[00:00:02.591 01/01/2011]',-14.600
'[00:00:02.592 01/01/2011]',-15.700
'[00:00:02.593 01/01/2011]',-15.700
'[00:00:02.594 01/01/2011]',-14.700
'[00:00:02.595 01/01/2011]',-13.000
'[00:00:02.596 01/01/2011]',-11.300
'[00:00:02.597 01/01/2011]',-10.000
'[00:00:02.598 01/01/2011]',-9.100
'[00:00:02.599 01/01/2011]',-8.400
'[00:00:02.600 01/01/2011]',-7.800
'[00:00:02.601 01/01/2011]',-7.500
'[00:00:02.602 01/01/2011]',-7.500
'[00:00:02.603 01/01/2011]',-7.900
'[00:00:02.604 01/01/2011]',-8.200
'[00:00:02.605 01/01/2011]',-8.100
'[00:00:02.606 01/01/2011]',-7.500
'[00:00:02.607 01/01/2011]',-6.700
'[00:00:02.608 01/01/2011]',-6.300
'[00:00:02.609 01/01/2011]',-6.700
'[00:00:02.610 01/01/2011]',-7.900
'[00:00:02.611 01/01/2011]',-9.000
'[00:00:02.612 01/01/2011]',-9.300
'[00:00:02.613 01/01/2011]',-8.300
'[00:00:02.614 01/01/2011]',-6.300
'[00:00:02.615 01/01/2011]',-4.300
'[00:00:02.616 01/01/2011]',-3.200
'[00:00:02.617 01/01/2011]',-3.300
'[00:00:02.618 01/01/2011]',-4.200
'[00:00:02.619 01/01/2011]',-5.100
'[00:00:02.620 01/01/2011]',-5.200
'[00:00:02.621 01/01/2011]',-4.300
'[00:00:02.622 01/01/2011]',-3.100
'[00:00:02.623 01/01/2011]',-2.000
'[00:00:02.624 01/01/2011]',-1.600
'[00:00:02.625 01/01/2011]',-1.600
'[00:00:02.626 01/01/2011]',-1.800
'[00:00:02.627 01/01/2011]',-1.900
'[00:00:02.628 01/01/2011]',-1.900
'[00:00:02.629 01/01/2011]',-2.000
'[00:00:02.630 01/01/2011]',-2.500
'[00:00:02.631 01/01/2011]',-3.300
'[00:00:02.632 01/01/2011]',-3.900
'[00:00:02.633 01/01/2011]',-3.900
'[00:00:02.634 01/01/2011]',-3.100
'[00:00:02.635 01/01/2011]',-1.700
'[00:00:02.636 01/01/2011]',-0.500
'[00:00:02.637 01/01/2011]',0.300
'[00:00:02.638 01/01/2011]',0.400
'[00:00:02.639 01/01/2011]',0.200
'[00:00:02.640 01/01/2011]',0.100
'[00:00:02.641 01/01/2011]',0.400
'[00:00:02.642 01/01/2011]',1.000
'[00:00:02.643 01/01/2011]',1.400
'[00:00:02.644 01/01/2011]',1.400
'[00:00:02.645 01/01/2011]',0.900
'[00:00:02.646 01/01/2011]',0.200
'[00:00:02.647 01/01/2011]',-0.100
'[00:00:02.648 01/01/2011]',0.400
'[00:00:02.649 01/01/2011]',1.600
'[00:00:02.650 01/01/2011]',3.200
'[00:00:02.651 01/01/2011]',4.500
'[00:00:02.652 01/01/2011]',5.000
'[00:00:02.653 01/01/2011]',4.700
'[00:00:02.654 01/01/2011]',3.900
'[00:00:02.655 01/01/2011]',3.500
'[00:00:02.656 01/01/2011]',3.800
'[00:00:02.657 01/01/2011]',4.800
'[00:00:02.658 01/01/2011]',6.100
'[00:00:02.659 01/01/2011]',6.900
'[00:00:02.660 01/01/2011]',6.700
'[00:00:02.661 01/01/2011]',5.600
'[00:00:02.662 01/01/2011]',4.100
'[00:00:02.663 01/01/2011]',2.700
'[00:00:02.664 01/01/2011]',1.900
'[00:00:02.665 01/01/2011]',1.800
'[00:00:02.666 01/01/2011]',1.900
'[00:00:02.667 01/01/2011]',2.100
'[00:00:02.668 01/01/2011]',2.200
'[00:00:02.669 01/01/2011]',2.500
'[00:00:02.670 01/01/2011]',3.300
'[00:00:02.671 01/01/2011]',4.400
'[00:00:02.672 01/01/2011]',5.700
'[00:00:02.673 01/01/2011]',6.700
'[00:00:02.674 01/01/2011]',7.100
'[00:00:02.675 01/01/2011]',6.800
'[00:00:02.676 01/01/2011]',6.100
'[00:00:02.677 01/01/2011]',5.500
'[00:00:02.678 01/01/2011]',5.300
'[00:00:02.679 01/01/2011]',5.500
'[00:00:02.680 01/01/2011]',5.800
'[00:00:02.681 01/01/2011]',5.900
'[00:00:02.682 01/01/2011]',5.600
'[00:00:02.683 01/01/2011]',5.300
'[00:00:02.684 01/01/2011]',5.300
'[00:00:02.685 01/01/2011]',5.900
'[00:00:02.686 01/01/2011]',7.000
'[00:00:02.687 01/01/2011]',8.000
'[00:00:02.688 01/01/2011]',8.200
'[00:00:02.689 01/01/2011]',7.200
'[00:00:02.690 01/01/2011]',5.200
'[00:00:02.691 01/01/2011]',2.800
'[00:00:02.692 01/01/2011]',0.800
'[00:00:02.693 01/01/2011]',-0.300
'[00:00:02.694 01/01/2011]',-0.700
'[00:00:02.695 01/01/2011]',-0.900
'[00:00:02.696 01/01/2011]',-1.500
'[00:00:02.697 01/01/2011]',-2.700
'[00:00:02.698 01/01/2011]',-4.300
'[00:00:02.699 01/01/2011]',-5.800
'[00:00:02.700 01/01/2011]',-7.100
'[00:00:02.701 01/01/2011]',-8.100
'[00:00:02.702 01/01/2011]',-9.200
'[00:00:02.703 01/01/2011]',-10.600
'[00:00:02.704 01/01/2011]',-12.000
'[00:00:02.705 01/01/2011]',-13.100
'[00:00:02.706 01/01/2011]',-13.400
'[00:00:02.707 01/01/2011]',-12.800
'[00:00:02.708 01/01/2011]',-12.000
'[00:00:02.709 01/01/2011]',-11.600
'[00:00:02.710 01/01/2011]',-12.300
'[00:00:02.711 01/01/2011]',-14.300
'[00:00:02.712 01/01/2011]',-16.700
'[00:00:02.713 01/01/2011]',-18.800
'[00:00:02.714 01/01/2011]',-19.700
'[00:00:02.715 01/01/2011]',-19.100
'[00:00:02.716 01/01/2011]',-17.400
'[00:00:02.717 01/01/2011]',-15.200
'[00:00:02.718 01/01/2011]',-13.100
'[00:00:02.719 01/01/2011]',-11.500
'[00:00:02.720 01/01/2011]',-10.400
'[00:00:02.721 01/01/2011]',-9.500
'[00:00:02.722 01/01/2011]',-8.600
'[00:00:02.723 01/01/2011]',-7.700
'[00:00:02.724 01/01/2011]',-6.700
'[00:00:02.725 01/01/2011]',-5.400
'[00:00:02.726 01/01/2011]',-3.900
'[00:00:02.727 01/01/2011]',-1.900
'[00:00:02.728 01/01/2011]',0.600
'[00:00:02.729 01/01/2011]',3.500
'[00:00:02.730 01/01/2011]',6.200
'[00:00:02.731 01/01/2011]',8.300
'[00:00:02.732 01/01/2011]',9.500
'[00:00:02.733 01/01/2011]',9.700
'[00:00:02.734 01/01/2011]',9.300
'[00:00:02.735 01/01/2011]',8.800
'[00:00:02.736 01/01/2011]',8.800
'[00:00:02.737 01/01/2011]',9.400
'[00:00:02.738 01/01/2011]',10.300
'[00:00:02.739 01/01/2011]',11.000
'[00:00:02.740 01/01/2011]',11.300
'[00:00:02.741 01/01/2011]',11.100
'[00:00:02.742 01/01/2011]',10.800
'[00:00:02.743 01/01/2011]',10.600
'[00:00:02.744 01/01/2011]',10.800
'[00:00:02.745 01/01/2011]',11.000
'[00:00:02.746 01/01/2011]',10.800
'[00:00:02.747 01/01/2011]',9.900
'[00:00:02.748 01/01/2011]',8.500
'[00:00:02.749 01/01/2011]',7.200
'[00:00:02.750 01/01/2011]',6.700
'[00:00:02.751 01/01/2011]',7.400
'[00:00:02.752 01/01/2011]',9.200
'[00:00:02.753 01/01/2011]',11.300
'[00:00:02.754 01/01/2011]',12.700
'[00:00:02.755 01/01/2011]',12.900
'[00:00:02.756 01/01/2011]',11.700
'[00:00:02.757 01/01/2011]',9.700
'[00:00:02.758 01/01/2011]',7.800
'[00:00:02.759 01/01/2011]',6.800
'[00:00:02.760 01/01/2011]',7.100
'[00:00:02.761 01/01/2011]',8.300
'[00:00:02.762 01/01/2011]',10.000
'[00:00:02.763 01/01/2011]',11.400
'[00:00:02.764 01/01/2011]',12.300
'[00:00:02.765 01/01/2011]',12.700
'[00:00:02.766 01/01/2011]',12.700
'[00:00:02.767 01/01/2011]',12.600
'[00:00:02.768 01/01/2011]',12.400
'[00:00:02.769 01/01/2011]',12.100
'[00:00:02.770 01/01/2011]',11.600
'[00:00:02.771 01/01/2011]',11.100
'[00:00:02.772 01/01/2011]',10.900
'[00:00:02.773 01/01/2011]',11.200
'[00:00:02.774 01/01/2011]',12.000
'[00:00:02.775 01/01/2011]',12.900
'[00:00:02.776 01/01/2011]',13.800
'[00:00:02.777 01/01/2011]',14.200
'[00:00:02.778 01/01/2011]',14.000
'[00:00:02.779 01/01/2011]',13.300
'[00:00:02.780 01/01/2011]',12.300
'[00:00:02.781 01/01/2011]',11.300
'[00:00:02.782 01/01/2011]',10.600
'[00:00:02.783 01/01/2011]',10.400
'[00:00:02.784 01/01/2011]',10.600
'[00:00:02.785 01/01/2011]',11.100
'[00:00:02.786 01/01/2011]',11.600
'[00:00:02.787 01/01/2011]',11.700
'[00:00:02.788 01/01/2011]',11.200
'[00:00:02.789 01/01/2011]',10.000
'[00:00:02.790 01/01/2011]',8.500
'[00:00:02.791 01/01/2011]',7.000
'[00:00:02.792 01/01/2011]',6.100
'[00:00:02.793 01/01/2011]',5.800
'[00:00:02.794 01/01/2011]',6.100
'[00:00:02.795 01/01/2011]',6.600
'[00:00:02.796 01/01/2011]',6.700
'[00:00:02.797 01/01/2011]',6.100
'[00:00:02.798 01/01/2011]',4.700
'[00:00:02.799 01/01/2011]',2.900
'[00:00:02.800 01/01/2011]',1.500
'[00:00:02.801 01/01/2011]',0.900
'[00:00:02.802 01/01/2011]',1.300
'[00:00:02.803 01/01/2011]',2.500
'[00:00:02.804 01/01/2011]',3.700
'[00:00:02.805 01/01/2011]',4.200
'[00:00:02.806 01/01/2011]',3.500
'[00:00:02.807 01/01/2011]',1.700
'[00:00:02.808 01/01/2011]',-0.300
'[00:00:02.809 01/01/2011]',-1.900
'[00:00:02.810 01/01/2011]',-2.600
'[00:00:02.811 01/01/2011]',-2.200
'[00:00:02.812 01/01/2011]',-1.200
'[00:00:02.813 01/01/2011]',-0.300
'[00:00:02.814 01/01/2011]',-0.100
'[00:00:02.815 01/01/2011]',-0.900
'[00:00:02.816 01/01/2011]',-2.700
'[00:00:02.817 01/01/2011]',-4.800
'[00:00:02.818 01/01/2011]',-6.700
'[00:00:02.819 01/01/2011]',-7.700
'[00:00:02.820 01/01/2011]',-7.600
'[00:00:02.821 01/01/2011]',-6.800
'[00:00:02.822 01/01/2011]',-5.800
'[00:00:02.823 01/01/2011]',-5.200
'[00:00:02.824 01/01/2011]',-5.500
'[00:00:02.825 01/01/2011]',-6.500
'[00:00:02.826 01/01/2011]',-7.500
'[00:00:02.827 01/01/2011]',-8.000
'[00:00:02.828 01/01/2011]',-7.600
'[00:00:02.829 01/01/2011]',-6.600
'[00:00:02.830 01/01/2011]',-5.800
'[00:00:02.831 01/01/2011]',-5.800
'[00:00:02.832 01/01/2011]',-6.800
'[00:00:02.833 01/01/2011]',-8.400
'[00:00:02.834 01/01/2011]',-9.700
'[00:00:02.835 01/01/2011]',-10.100
'[00:00:02.836 01/01/2011]',-9.500
'[00:00:02.837 01/01/2011]',-8.300
'[00:00:02.838 01/01/2011]',-7.500
'[00:00:02.839 01/01/2011]',-7.400
'[00:00:02.840 01/01/2011]',-8.000
'[00:00:02.841 01/01/2011]',-8.700
'[00:00:02.842 01/01/2011]',-9.000
'[00:00:02.843 01/01/2011]',-8.500
'[00:00:02.844 01/01/2011]',-7.800
'[00:00:02.845 01/01/2011]',-7.500
'[00:00:02.846 01/01/2011]',-8.100
'[00:00:02.847 01/01/2011]',-9.400
'[00:00:02.848 01/01/2011]',-10.800
'[00:00:02.849 01/01/2011]',-11.400
'[00:00:02.850 01/01/2011]',-10.900
'[00:00:02.851 01/01/2011]',-9.600
'[00:00:02.852 01/01/2011]',-8.400
'[00:00:02.853 01/01/2011]',-7.900
'[00:00:02.854 01/01/2011]',-8.200
'[00:00:02.855 01/01/2011]',-8.700
'[00:00:02.856 01/01/2011]',-8.700
'[00:00:02.857 01/01/2011]',-8.200
'[00:00:02.858 01/01/2011]',-7.500
'[00:00:02.859 01/01/2011]',-7.400
'[00:00:02.860 01/01/2011]',-8.300
'[00:00:02.861 01/01/2011]',-9.900
'[00:00:02.862 01/01/2011]',-11.500
'[00:00:02.863 01/01/2011]',-12.200
'[00:00:02.864 01/01/2011]',-11.900
'[00:00:02.865 01/01/2011]',-10.800
'[00:00:02.866 01/01/2011]',-9.600
'[00:00:02.867 01/01/2011]',-9.000
'[00:00:02.868 01/01/2011]',-8.900
'[00:00:02.869 01/01/2011]',-9.000
'[00:00:02.870 01/01/2011]',-8.800
'[00:00:02.871 01/01/2011]',-8.400
'[00:00:02.872 01/01/2011]',-7.800
'[00:00:02.873 01/01/2011]',-7.500
'[00:00:02.874 01/01/2011]',-7.500
'[00:00:02.875 01/01/2011]',-7.900
'[00:00:02.876 01/01/2011]',-8.500
'[00:00:02.877 01/01/2011]',-9.000
'[00:00:02.878 01/01/2011]',-9.300
'[00:00:02.879 01/01/2011]',-9.300
'[00:00:02.880 01/01/2011]',-9.100
'[00:00:02.881 01/01/2011]',-8.800
'[00:00:02.882 01/01/2011]',-8.300
'[00:00:02.883 01/01/2011]',-7.900
'[00:00:02.884 01/01/2011]',-7.500
'[00:00:02.885 01/01/2011]',-7.100
'[00:00:02.886 01/01/2011]',-6.600
'[00:00:02.887 01/01/2011]',-5.800
'[00:00:02.888 01/01/2011]',-4.500
'[00:00:02.889 01/01/2011]',-3.000
'[00:00:02.890 01/01/2011]',-1.500
'[00:00:02.891 01/01/2011]',-0.400
'[00:00:02.892 01/01/2011]',0.100
'[00:00:02.893 01/01/2011]',0.300
'[00:00:02.894 01/01/2011]',0.600
'[00:00:02.895 01/01/2011]',1.100
'[00:00:02.896 01/01/2011]',1.800
'[00:00:02.897 01/01/2011]',2.500
'[00:00:02.898 01/01/2011]',2.600
'[00:00:02.899 01/01/2011]',2.100
'[00:00:02.900 01/01/2011]',0.800
'[00:00:02.901 01/01/2011]',-0.700
'[00:00:02.902 01/01/2011]',-1.600
'[00:00:02.903 01/01/2011]',-1.500
'[00:00:02.904 01/01/2011]',-0.300
'[00:00:02.905 01/01/2011]',1.700
'[00:00:02.906 01/01/2011]',3.600
'[00:00:02.907 01/01/2011]',4.700
'[00:00:02.908 01/01/2011]',4.800
'[00:00:02.909 01/01/2011]',3.900
'[00:00:02.910 01/01/2011]',2.800
'[00:00:02.911 01/01/2011]',2.200
'[00:00:02.912 01/01/2011]',2.100
'[00:00:02.913 01/01/2011]',2.400
'[00:00:02.914 01/01/2011]',2.300
'[00:00:02.915 01/01/2011]',1.400
'[00:00:02.916 01/01/2011]',-0.200
'[00:00:02.917 01/01/2011]',-1.900
'[00:00:02.918 01/01/2011]',-2.800
'[00:00:02.919 01/01/2011]',-2.500
'[00:00:02.920 01/01/2011]',-1.300
'[00:00:02.921 01/01/2011]',-0.200
'[00:00:02.922 01/01/2011]',0.100
'[00:00:02.923 01/01/2011]',-0.800
'[00:00:02.924 01/01/2011]',-2.200
'[00:00:02.925 01/01/2011]',-3.300
'[00:00:02.926 01/01/2011]',-3.800
'[00:00:02.927 01/01/2011]',-3.600
'[00:00:02.928 01/01/2011]',-3.600
'[00:00:02.929 01/01/2011]',-4.500
'[00:00:02.930 01/01/2011]',-6.600
'[00:00:02.931 01/01/2011]',-9.500
'[00:00:02.932 01/01/2011]',-12.300
'[00:00:02.933 01/01/2011]',-14.000
'[00:00:02.934 01/01/2011]',-14.500
'[00:00:02.935 01/01/2011]',-14.100
'[00:00:02.936 01/01/2011]',-13.900
'[00:00:02.937 01/01/2011]',-14.600
'[00:00:02.938 01/01/2011]',-16.300
'[00:00:02.939 01/01/2011]',-18.800
'[00:00:02.940 01/01/2011]',-21.000
'[00:00:02.941 01/01/2011]',-22.200
'[00:00:02.942 01/01/2011]',-22.300
'[00:00:02.943 01/01/2011]',-21.600
'[00:00:02.944 01/01/2011]',-20.900
'[00:00:02.945 01/01/2011]',-20.700
'[00:00:02.946 01/01/2011]',-21.100
'[00:00:02.947 01/01/2011]',-21.700
'[00:00:02.948 01/01/2011]',-22.200
'[00:00:02.949 01/01/2011]',-22.400
'[00:00:02.950 01/01/2011]',-22.400
'[00:00:02.951 01/01/2011]',-22.700
'[00:00:02.952 01/01/2011]',-23.500
'[00:00:02.953 01/01/2011]',-24.600
'[00:00:02.954 01/01/2011]',-25.500
'[00:00:02.955 01/01/2011]',-25.800
'[00:00:02.956 01/01/2011]',-25.100
'[00:00:02.957 01/01/2011]',-23.700
'[00:00:02.958 01/01/2011]',-21.900
'[00:00:02.959 01/01/2011]',-20.500
'[00:00:02.960 01/01/2011]',-19.700
'[00:00:02.961 01/01/2011]',-19.900
'[00:00:02.962 01/01/2011]',-20.900
'[00:00:02.963 01/01/2011]',-22.600
'[00:00:02.964 01/01/2011]',-24.300
'[00:00:02.965 01/01/2011]',-25.700
'[00:00:02.966 01/01/2011]',-26.300
'[00:00:02.967 01/01/2011]',-25.900
'[00:00:02.968 01/01/2011]',-24.700
'[00:00:02.969 01/01/2011]',-23.300
'[00:00:02.970 01/01/2011]',-22.000
'[00:00:02.971 01/01/2011]',-21.300
'[00:00:02.972 01/01/2011]',-21.200
'[00:00:02.973 01/01/2011]',-21.600
'[00:00:02.974 01/01/2011]',-22.100
'[00:00:02.975 01/01/2011]',-22.700
'[00:00:02.976 01/01/2011]',-23.200
'[00:00:02.977 01/01/2011]',-23.400
'[00:00:02.978 01/01/2011]',-23.300
'[00:00:02.979 01/01/2011]',-23.100
'[00:00:02.980 01/01/2011]',-22.700
'[00:00:02.981 01/01/2011]',-22.500
'[00:00:02.982 01/01/2011]',-22.300
'[00:00:02.983 01/01/2011]',-22.000
'[00:00:02.984 01/01/2011]',-21.400
'[00:00:02.985 01/01/2011]',-20.400
'[00:00:02.986 01/01/2011]',-19.200
'[00:00:02.987 01/01/2011]',-18.300
'[00:00:02.988 01/01/2011]',-18.400
'[00:00:02.989 01/01/2011]',-19.400
'[00:00:02.990 01/01/2011]',-20.700
'[00:00:02.991 01/01/2011]',-21.600
'[00:00:02.992 01/01/2011]',-21.500
'[00:00:02.993 01/01/2011]',-20.300
'[00:00:02.994 01/01/2011]',-18.700
'[00:00:02.995 01/01/2011]',-17.500
'[00:00:02.996 01/01/2011]',-17.100
'[00:00:02.997 01/01/2011]',-17.400
'[00:00:02.998 01/01/2011]',-17.900
'[00:00:02.999 01/01/2011]',-18.000
'[00:00:03.000 01/01/2011]',-17.500
'[00:00:03.001 01/01/2011]',-16.800
'[00:00:03.002 01/01/2011]',-16.900
'[00:00:03.003 01/01/2011]',-18.200
'[00:00:03.004 01/01/2011]',-20.800
'[00:00:03.005 01/01/2011]',-24.000
'[00:00:03.006 01/01/2011]',-26.600
'[00:00:03.007 01/01/2011]',-27.600
'[00:00:03.008 01/01/2011]',-26.200
'[00:00:03.009 01/01/2011]',-22.400
'[00:00:03.010 01/01/2011]',-16.700
'[00:00:03.011 01/01/2011]',-10.000
'[00:00:03.012 01/01/2011]',-3.100
'[00:00:03.013 01/01/2011]',3.900
'[00:00:03.014 01/01/2011]',11.300
'[00:00:03.015 01/01/2011]',19.500
'[00:00:03.016 01/01/2011]',28.600
'[00:00:03.017 01/01/2011]',38.101
'[00:00:03.018 01/01/2011]',46.601
'[00:00:03.019 01/01/2011]',52.901
'[00:00:03.020 01/01/2011]',56.001
'[00:00:03.021 01/01/2011]',56.601
'[00:00:03.022 01/01/2011]',55.701
'[00:00:03.023 01/01/2011]',55.101
'[00:00:03.024 01/01/2011]',55.501
'[00:00:03.025 01/01/2011]',56.801
'[00:00:03.026 01/01/2011]',57.901
'[00:00:03.027 01/01/2011]',57.701
'[00:00:03.028 01/01/2011]',56.001
'[00:00:03.029 01/01/2011]',53.201
'[00:00:03.030 01/01/2011]',50.101
'[00:00:03.031 01/01/2011]',47.201
'[00:00:03.032 01/01/2011]',44.401
'[00:00:03.033 01/01/2011]',40.601
'[00:00:03.034 01/01/2011]',35.001
'[00:00:03.035 01/01/2011]',27.200
'[00:00:03.036 01/01/2011]',17.300
'[00:00:03.037 01/01/2011]',6.000
'[00:00:03.038 01/01/2011]',-5.800
'[00:00:03.039 01/01/2011]',-17.500
'[00:00:03.040 01/01/2011]',-28.000
'[00:00:03.041 01/01/2011]',-36.401
'[00:00:03.042 01/01/2011]',-41.301
'[00:00:03.043 01/01/2011]',-41.701
'[00:00:03.044 01/01/2011]',-37.801
'[00:00:03.045 01/01/2011]',-30.900
'[00:00:03.046 01/01/2011]',-23.000
'[00:00:03.047 01/01/2011]',-16.100
'[00:00:03.048 01/01/2011]',-11.500
'[00:00:03.049 01/01/2011]',-9.200
'[00:00:03.050 01/01/2011]',-8.400
'[00:00:03.051 01/01/2011]',-8.000
'[00:00:03.052 01/01/2011]',-7.500
'[00:00:03.053 01/01/2011]',-6.900
'[00:00:03.054 01/01/2011]',-6.500
'[00:00:03.055 01/01/2011]',-6.500
'[00:00:03.056 01/01/2011]',-7.000
'[00:00:03.057 01/01/2011]',-7.800
'[00:00:03.058 01/01/2011]',-8.700
'[00:00:03.059 01/01/2011]',-9.500
'[00:00:03.060 01/01/2011]',-10.100
'[00:00:03.061 01/01/2011]',-10.400
'[00:00:03.062 01/01/2011]',-10.500
'[00:00:03.063 01/01/2011]',-10.300
'[00:00:03.064 01/01/2011]',-9.700
'[00:00:03.065 01/01/2011]',-9.000
'[00:00:03.066 01/01/2011]',-8.300
'[00:00:03.067 01/01/2011]',-8.000
'[00:00:03.068 01/01/2011]',-8.300
'[00:00:03.069 01/01/2011]',-9.200
'[00:00:03.070 01/01/2011]',-10.400
'[00:00:03.071 01/01/2011]',-11.100
'[00:00:03.072 01/01/2011]',-11.000
'[00:00:03.073 01/01/2011]',-9.800
'[00:00:03.074 01/01/2011]',-7.900
'[00:00:03.075 01/01/2011]',-6.100
'[00:00:03.076 01/01/2011]',-5.100
'[00:00:03.077 01/01/2011]',-5.300
'[00:00:03.078 01/01/2011]',-6.300
'[00:00:03.079 01/01/2011]',-7.300
'[00:00:03.080 01/01/2011]',-7.900
'[00:00:03.081 01/01/2011]',-7.600
'[00:00:03.082 01/01/2011]',-7.000
'[00:00:03.083 01/01/2011]',-6.400
'[00:00:03.084 01/01/2011]',-6.300
'[00:00:03.085 01/01/2011]',-6.700
'[00:00:03.086 01/01/2011]',-7.300
'[00:00:03.087 01/01/2011]',-7.500
'[00:00:03.088 01/01/2011]',-7.300
'[00:00:03.089 01/01/2011]',-6.800
'[00:00:03.090 01/01/2011]',-6.200
'[00:00:03.091 01/01/2011]',-5.800
'[00:00:03.092 01/01/2011]',-5.700
'[00:00:03.093 01/01/2011]',-5.700
'[00:00:03.094 01/01/2011]',-5.500
'[00:00:03.095 01/01/2011]',-5.000
'[00:00:03.096 01/01/2011]',-4.300
'[00:00:03.097 01/01/2011]',-3.500
'[00:00:03.098 01/01/2011]',-2.900
'[00:00:03.099 01/01/2011]',-2.900
'[00:00:03.100 01/01/2011]',-3.300
'[00:00:03.101 01/01/2011]',-4.000
'[00:00:03.102 01/01/2011]',-4.600
'[00:00:03.103 01/01/2011]',-4.700
'[00:00:03.104 01/01/2011]',-4.100
'[00:00:03.105 01/01/2011]',-3.300
'[00:00:03.106 01/01/2011]',-2.600
'[00:00:03.107 01/01/2011]',-2.700
'[00:00:03.108 01/01/2011]',-3.600
'[00:00:03.109 01/01/2011]',-4.900
'[00:00:03.110 01/01/2011]',-6.000
'[00:00:03.111 01/01/2011]',-6.300
'[00:00:03.112 01/01/2011]',-5.400
'[00:00:03.113 01/01/2011]',-3.800
'[00:00:03.114 01/01/2011]',-1.800
'[00:00:03.115 01/01/2011]',-0.200
'[00:00:03.116 01/01/2011]',0.900
'[00:00:03.117 01/01/2011]',1.700
'[00:00:03.118 01/01/2011]',2.200
'[00:00:03.119 01/01/2011]',2.500
'[00:00:03.120 01/01/2011]',2.500
'[00:00:03.121 01/01/2011]',1.900
'[00:00:03.122 01/01/2011]',0.900
'[00:00:03.123 01/01/2011]',-0.100
'[00:00:03.124 01/01/2011]',-0.400
'[00:00:03.125 01/01/2011]',0.500
'[00:00:03.126 01/01/2011]',2.400
'[00:00:03.127 01/01/2011]',4.400
'[00:00:03.128 01/01/2011]',5.600
'[00:00:03.129 01/01/2011]',5.600
'[00:00:03.130 01/01/2011]',4.600
'[00:00:03.131 01/01/2011]',3.600
'[00:00:03.132 01/01/2011]',3.500
'[00:00:03.133 01/01/2011]',4.500
'[00:00:03.134 01/01/2011]',6.200
'[00:00:03.135 01/01/2011]',7.800
'[00:00:03.136 01/01/2011]',8.600
'[00:00:03.137 01/01/2011]',8.400
'[00:00:03.138 01/01/2011]',8.000
'[00:00:03.139 01/01/2011]',8.100
'[00:00:03.140 01/01/2011]',9.100
'[00:00:03.141 01/01/2011]',10.800
'[00:00:03.142 01/01/2011]',12.500
'[00:00:03.143 01/01/2011]',13.500
'[00:00:03.144 01/01/2011]',13.400
'[00:00:03.145 01/01/2011]',12.300
'[00:00:03.146 01/01/2011]',10.900
'[00:00:03.147 01/01/2011]',9.800
'[00:00:03.148 01/01/2011]',9.600
'[00:00:03.149 01/01/2011]',10.100
'[00:00:03.150 01/01/2011]',11.200
'[00:00:03.151 01/01/2011]',12.200
'[00:00:03.152 01/01/2011]',12.700
'[00:00:03.153 01/01/2011]',12.400
'[00:00:03.154 01/01/2011]',11.500
'[00:00:03.155 01/01/2011]',10.500
'[00:00:03.156 01/01/2011]',10.100
'[00:00:03.157 01/01/2011]',10.500
'[00:00:03.158 01/01/2011]',11.600
'[00:00:03.159 01/01/2011]',13.000
'[00:00:03.160 01/01/2011]',14.100
'[00:00:03.161 01/01/2011]',14.300
'[00:00:03.162 01/01/2011]',13.900
'[00:00:03.163 01/01/2011]',13.300
'[00:00:03.164 01/01/2011]',12.900
'[00:00:03.165 01/01/2011]',13.100
'[00:00:03.166 01/01/2011]',13.900
'[00:00:03.167 01/01/2011]',14.800
'[00:00:03.168 01/01/2011]',15.400
'[00:00:03.169 01/01/2011]',15.400
'[00:00:03.170 01/01/2011]',15.000
'[00:00:03.171 01/01/2011]',14.400
'[00:00:03.172 01/01/2011]',14.000
'[00:00:03.173 01/01/2011]',14.000
'[00:00:03.174 01/01/2011]',14.400
'[00:00:03.175 01/01/2011]',15.000
'[00:00:03.176 01/01/2011]',15.600
'[00:00:03.177 01/01/2011]',15.900
'[00:00:03.178 01/01/2011]',16.100
'[00:00:03.179 01/01/2011]',16.300
'[00:00:03.180 01/01/2011]',16.600
'[00:00:03.181 01/01/2011]',17.200
'[00:00:03.182 01/01/2011]',17.800
'[00:00:03.183 01/01/2011]',18.200
'[00:00:03.184 01/01/2011]',18.000
'[00:00:03.185 01/01/2011]',17.300
'[00:00:03.186 01/01/2011]',16.200
'[00:00:03.187 01/01/2011]',15.200
'[00:00:03.188 01/01/2011]',14.900
'[00:00:03.189 01/01/2011]',15.300
'[00:00:03.190 01/01/2011]',16.300
'[00:00:03.191 01/01/2011]',17.200
'[00:00:03.192 01/01/2011]',17.600
'[00:00:03.193 01/01/2011]',17.200
'[00:00:03.194 01/01/2011]',16.300
'[00:00:03.195 01/01/2011]',15.500
'[00:00:03.196 01/01/2011]',15.200
'[00:00:03.197 01/01/2011]',15.400
'[00:00:03.198 01/01/2011]',15.700
'[00:00:03.199 01/01/2011]',15.500
'[00:00:03.200 01/01/2011]',14.600
'[00:00:03.201 01/01/2011]',13.200
'[00:00:03.202 01/01/2011]',12.100
'[00:00:03.203 01/01/2011]',11.900
'[00:00:03.204 01/01/2011]',12.600
'[00:00:03.205 01/01/2011]',13.500
'[00:00:03.206 01/01/2011]',13.700
'[00:00:03.207 01/01/2011]',13.000
'[00:00:03.208 01/01/2011]',11.700
'[00:00:03.209 01/01/2011]',10.700
'[00:00:03.210 01/01/2011]',10.700
'[00:00:03.211 01/01/2011]',11.900
'[00:00:03.212 01/01/2011]',13.300
'[00:00:03.213 01/01/2011]',14.100
'[00:00:03.214 01/01/2011]',13.500
'[00:00:03.215 01/01/2011]',12.100
'[00:00:03.216 01/01/2011]',10.800
'[00:00:03.217 01/01/2011]',10.800
'[00:00:03.218 01/01/2011]',12.400
'[00:00:03.219 01/01/2011]',14.700
'[00:00:03.220 01/01/2011]',16.700
'[00:00:03.221 01/01/2011]',17.200
'[00:00:03.222 01/01/2011]',16.200
'[00:00:03.223 01/01/2011]',14.500
'[00:00:03.224 01/01/2011]',12.800
'[00:00:03.225 01/01/2011]',11.900
'[00:00:03.226 01/01/2011]',11.500
'[00:00:03.227 01/01/2011]',11.200
'[00:00:03.228 01/01/2011]',10.600
'[00:00:03.229 01/01/2011]',9.900
'[00:00:03.230 01/01/2011]',9.600
'[00:00:03.231 01/01/2011]',10.300
'[00:00:03.232 01/01/2011]',11.800
'[00:00:03.233 01/01/2011]',13.700
'[00:00:03.234 01/01/2011]',14.900
'[00:00:03.235 01/01/2011]',15.200
'[00:00:03.236 01/01/2011]',14.400
'[00:00:03.237 01/01/2011]',13.100
'[00:00:03.238 01/01/2011]',11.800
'[00:00:03.239 01/01/2011]',10.700
'[00:00:03.240 01/01/2011]',9.800
'[00:00:03.241 01/01/2011]',9.100
'[00:00:03.242 01/01/2011]',8.500
'[00:00:03.243 01/01/2011]',8.300
'[00:00:03.244 01/01/2011]',8.600
'[00:00:03.245 01/01/2011]',9.400
'[00:00:03.246 01/01/2011]',10.300
'[00:00:03.247 01/01/2011]',10.700
'[00:00:03.248 01/01/2011]',10.400
'[00:00:03.249 01/01/2011]',9.700
'[00:00:03.250 01/01/2011]',8.800
'[00:00:03.251 01/01/2011]',8.100
'[00:00:03.252 01/01/2011]',7.800
'[00:00:03.253 01/01/2011]',7.600
'[00:00:03.254 01/01/2011]',7.500
'[00:00:03.255 01/01/2011]',7.300
'[00:00:03.256 01/01/2011]',7.200
'[00:00:03.257 01/01/2011]',7.300
'[00:00:03.258 01/01/2011]',7.400
'[00:00:03.259 01/01/2011]',7.500
'[00:00:03.260 01/01/2011]',7.300
'[00:00:03.261 01/01/2011]',6.800
'[00:00:03.262 01/01/2011]',6.100
'[00:00:03.263 01/01/2011]',5.500
'[00:00:03.264 01/01/2011]',5.100
'[00:00:03.265 01/01/2011]',5.000
'[00:00:03.266 01/01/2011]',4.800
'[00:00:03.267 01/01/2011]',4.500
'[00:00:03.268 01/01/2011]',4.100
'[00:00:03.269 01/01/2011]',3.700
'[00:00:03.270 01/01/2011]',3.600
'[00:00:03.271 01/01/2011]',3.500
'[00:00:03.272 01/01/2011]',3.100
'[00:00:03.273 01/01/2011]',2.000
'[00:00:03.274 01/01/2011]',0.300
'[00:00:03.275 01/01/2011]',-1.600
'[00:00:03.276 01/01/2011]',-3.200
'[00:00:03.277 01/01/2011]',-3.500
'[00:00:03.278 01/01/2011]',-2.600
'[00:00:03.279 01/01/2011]',-0.700
'[00:00:03.280 01/01/2011]',1.100
'[00:00:03.281 01/01/2011]',1.900
'[00:00:03.282 01/01/2011]',1.200
'[00:00:03.283 01/01/2011]',-0.800
'[00:00:03.284 01/01/2011]',-3.600
'[00:00:03.285 01/01/2011]',-5.900
'[00:00:03.286 01/01/2011]',-7.200
'[00:00:03.287 01/01/2011]',-7.300
'[00:00:03.288 01/01/2011]',-6.500
'[00:00:03.289 01/01/2011]',-5.600
'[00:00:03.290 01/01/2011]',-5.200
'[00:00:03.291 01/01/2011]',-5.700
'[00:00:03.292 01/01/2011]',-6.700
'[00:00:03.293 01/01/2011]',-7.900
'[00:00:03.294 01/01/2011]',-8.800
'[00:00:03.295 01/01/2011]',-8.800
'[00:00:03.296 01/01/2011]',-7.900
'[00:00:03.297 01/01/2011]',-6.500
'[00:00:03.298 01/01/2011]',-4.900
'[00:00:03.299 01/01/2011]',-3.900
'[00:00:03.300 01/01/2011]',-3.800
'[00:00:03.301 01/01/2011]',-4.800
'[00:00:03.302 01/01/2011]',-6.500
'[00:00:03.303 01/01/2011]',-8.400
'[00:00:03.304 01/01/2011]',-9.600
'[00:00:03.305 01/01/2011]',-9.600
'[00:00:03.306 01/01/2011]',-8.500
'[00:00:03.307 01/01/2011]',-7.100
'[00:00:03.308 01/01/2011]',-6.200
'[00:00:03.309 01/01/2011]',-6.300
'[00:00:03.310 01/01/2011]',-7.400
'[00:00:03.311 01/01/2011]',-8.700
'[00:00:03.312 01/01/2011]',-9.400
'[00:00:03.313 01/01/2011]',-9.300
'[00:00:03.314 01/01/2011]',-8.400
'[00:00:03.315 01/01/2011]',-7.800
'[00:00:03.316 01/01/2011]',-7.900
'[00:00:03.317 01/01/2011]',-9.100
'[00:00:03.318 01/01/2011]',-10.800
'[00:00:03.319 01/01/2011]',-12.100
'[00:00:03.320 01/01/2011]',-12.400
'[00:00:03.321 01/01/2011]',-11.800
'[00:00:03.322 01/01/2011]',-11.000
'[00:00:03.323 01/01/2011]',-10.500
'[00:00:03.324 01/01/2011]',-10.700
'[00:00:03.325 01/01/2011]',-11.500
'[00:00:03.326 01/01/2011]',-12.000
'[00:00:03.327 01/01/2011]',-12.000
'[00:00:03.328 01/01/2011]',-11.200
'[00:00:03.329 01/01/2011]',-10.000
'[00:00:03.330 01/01/2011]',-9.100
'[00:00:03.331 01/01/2011]',-8.600
'[00:00:03.332 01/01/2011]',-8.600
'[00:00:03.333 01/01/2011]',-8.700
'[00:00:03.334 01/01/2011]',-8.600
'[00:00:03.335 01/01/2011]',-8.400
'[00:00:03.336 01/01/2011]',-8.200
'[00:00:03.337 01/01/2011]',-8.200
'[00:00:03.338 01/01/2011]',-8.500
'[00:00:03.339 01/01/2011]',-8.900
'[00:00:03.340 01/01/2011]',-9.400
'[00:00:03.341 01/01/2011]',-9.600
'[00:00:03.342 01/01/2011]',-9.600
'[00:00:03.343 01/01/2011]',-9.400
'[00:00:03.344 01/01/2011]',-9.100
'[00:00:03.345 01/01/2011]',-8.600
'[00:00:03.346 01/01/2011]',-8.100
'[00:00:03.347 01/01/2011]',-7.700
'[00:00:03.348 01/01/2011]',-7.600
'[00:00:03.349 01/01/2011]',-7.800
'[00:00:03.350 01/01/2011]',-8.400
'[00:00:03.351 01/01/2011]',-9.000
'[00:00:03.352 01/01/2011]',-9.200
'[00:00:03.353 01/01/2011]',-8.700
'[00:00:03.354 01/01/2011]',-7.600
'[00:00:03.355 01/01/2011]',-6.300
'[00:00:03.356 01/01/2011]',-5.300
'[00:00:03.357 01/01/2011]',-5.000
'[00:00:03.358 01/01/2011]',-5.100
'[00:00:03.359 01/01/2011]',-5.200
'[00:00:03.360 01/01/2011]',-4.900
'[00:00:03.361 01/01/2011]',-4.100
'[00:00:03.362 01/01/2011]',-3.100
'[00:00:03.363 01/01/2011]',-2.500
'[00:00:03.364 01/01/2011]',-2.500
'[00:00:03.365 01/01/2011]',-2.900
'[00:00:03.366 01/01/2011]',-3.400
'[00:00:03.367 01/01/2011]',-3.500
'[00:00:03.368 01/01/2011]',-3.100
'[00:00:03.369 01/01/2011]',-2.400
'[00:00:03.370 01/01/2011]',-1.800
'[00:00:03.371 01/01/2011]',-1.600
'[00:00:03.372 01/01/2011]',-1.800
'[00:00:03.373 01/01/2011]',-2.100
'[00:00:03.374 01/01/2011]',-2.100
'[00:00:03.375 01/01/2011]',-1.600
'[00:00:03.376 01/01/2011]',-1.000
'[00:00:03.377 01/01/2011]',-0.400
'[00:00:03.378 01/01/2011]',-0.400
'[00:00:03.379 01/01/2011]',-0.900
'[00:00:03.380 01/01/2011]',-1.600
'[00:00:03.381 01/01/2011]',-2.100
'[00:00:03.382 01/01/2011]',-2.000
'[00:00:03.383 01/01/2011]',-1.300
'[00:00:03.384 01/01/2011]',-0.300
'[00:00:03.385 01/01/2011]',0.300
'[00:00:03.386 01/01/2011]',0.000
'[00:00:03.387 01/01/2011]',-1.000
'[00:00:03.388 01/01/2011]',-2.300
'[00:00:03.389 01/01/2011]',-3.400
'[00:00:03.390 01/01/2011]',-3.900
'[00:00:03.391 01/01/2011]',-3.900
'[00:00:03.392 01/01/2011]',-3.800
'[00:00:03.393 01/01/2011]',-3.800
'[00:00:03.394 01/01/2011]',-4.100
'[00:00:03.395 01/01/2011]',-4.200
'[00:00:03.396 01/01/2011]',-3.900
'[00:00:03.397 01/01/2011]',-3.200
'[00:00:03.398 01/01/2011]',-2.700
'[00:00:03.399 01/01/2011]',-3.000
'[00:00:03.400 01/01/2011]',-4.600
'[00:00:03.401 01/01/2011]',-7.200
'[00:00:03.402 01/01/2011]',-10.100
'[00:00:03.403 01/01/2011]',-12.300
'[00:00:03.404 01/01/2011]',-13.300
'[00:00:03.405 01/01/2011]',-13.100
'[00:00:03.406 01/01/2011]',-12.200
'[00:00:03.407 01/01/2011]',-11.300
'[00:00:03.408 01/01/2011]',-10.900
'[00:00:03.409 01/01/2011]',-11.100
'[00:00:03.410 01/01/2011]',-11.700
'[00:00:03.411 01/01/2011]',-12.400
